Time,Centered Angle,Centered Low Frequency Carrier,Centered Tremor,Centered Envelope,Centered Torque,Normalized WFE Displacement,centeredTorque
0,58,10,0.21492991910486337,143,129,124,129
0.000777,58,9,0.21200839468322272,143,129,124,129
0.001553,57,9,0.20835879363412435,143,130,124,130
0.00233,57,9,0.20394304322736975,143,131,124,131
0.003106,56,8,0.19872307765286085,143,132,124,132
0.003883,55,8,0.1926688381075645,143,133,124,133
0.004659,54,8,0.1857522728810647,143,134,124,134
0.005436,53,7,0.17795333743957123,143,135,124,135
0.006212,52,7,0.16925199450844228,143,136,124,136
0.006989,51,7,0.1596352141530583,143,137,123,137
0.007765,49,6,0.14909097385806128,143,138,123,138
0.008542,48,6,0.13761025860488788,143,139,122,139
0.009318,46,6,0.12518806094751536,143,140,121,140
0.010095,45,6,0.1118223810864032,143,142,119,142
0.010872,43,5,0.09751422694055444,143,143,117,143
0.011648,41,5,0.08226861421762612,143,144,115,144
0.012425,39,5,0.06609656648203494,143,145,112,145
0.013201,37,4,0.04901111522103912,143,146,109,146
0.013978,35,4,0.031033299908665605,143,147,105,147
0.014754,33,4,0.012186168067498336,143,148,100,148
0.015531,31,3,-0.007501224671816911,143,149,94,149
0.016307,28,3,-0.02799881451329359,143,150,87,150
0.017084,26,3,-0.049273529440716675,143,151,80,151
0.01786,23,2,-0.07129028916516078,144,152,71,152
0.018637,21,2,-0.09401300507495196,144,152,62,152
0.019413,18,2,-0.11740758018815627,144,153,51,153
0.02019,15,1,-0.1414349091076793,144,154,40,154
0.020967,12,1,-0.16606087797899768,144,155,27,155
0.021743,10,1,-0.19124836445059512,144,155,13,155
0.02252,7,1,-0.21695823763713445,144,156,1,156
0.023296,4,1,-0.24315435808549232,145,157,1,157
0.024073,1,1,-0.2697955777436116,145,157,1,157
0.024849,1,1,-0.2968427399323297,145,157,1,157
0.025626,1,1,-0.3242566793201874,145,158,1,158
0.026402,1,1,-0.35199622190126467,145,158,1,158
0.027179,1,1,-0.38002018497610496,146,159,1,159
0.027955,1,1,-0.4082903771358362,146,159,1,159
0.028732,1,1,-0.4367665982494624,146,159,1,159
0.029508,1,1,-0.4654116394544696,146,159,1,159
0.030285,1,1,-0.4941862831506794,147,159,1,159
0.031062,1,1,-0.5230543029974957,147,160,1,160
0.031838,1,1,-0.5519784639145837,147,160,1,160
0.032615,1,1,-0.580922522086005,148,160,1,160
0.033391,1,1,-0.609848224967885,148,160,1,160
0.034168,1,1,-0.6387183112996149,148,159,1,159
0.034944,1,1,-0.6674965111186715,148,159,1,159
0.035721,1,1,-0.6961445457791205,149,159,1,159
0.036497,1,1,-0.7246261279737912,149,159,1,159
0.037274,1,1,-0.7529049617602102,149,159,1,159
0.03805,1,1,-0.7809457425902915,150,158,1,158
0.038827,1,1,-0.8087151573438813,150,158,1,158
0.039603,1,1,-0.836177884366156,150,158,1,158
0.04038,1,1,-0.8633025935089078,151,157,1,157
0.041157,1,1,-0.8900559461758002,151,157,1,157
0.041933,1,1,-0.9164055953715298,151,156,1,156
0.04271,1,1,-0.9423201857550433,152,156,1,156
0.043486,1,1,-0.9677643536967331,152,155,1,155
0.044263,1,1,-0.9927067273396974,153,154,1,154
0.045039,1,1,-1.0171119266651416,153,154,1,154
0.045816,1,1,-1.0409465635618305,153,153,1,153
0.046592,1,1,-1.064178241899667,154,152,1,152
0.047369,1,1,-1.0867715576074375,154,151,1,151
0.048145,1,1,-1.1086950987547177,154,150,1,150
0.048922,1,1,-1.1299164456379516,155,150,1,150
0.049698,1,1,-1.1504031708707498,155,149,1,149
0.050475,1,1,-1.1701228394783627,155,148,1,148
0.051252,1,1,-1.189044008996403,156,147,1,147
0.052028,1,1,-1.2071322295737617,156,146,1,146
0.052805,1,1,-1.2243540440797576,156,145,1,145
0.053581,1,1,-1.2406729882155154,156,143,1,143
0.054358,1,1,-1.2560545906295524,157,142,1,142
0.055134,1,1,-1.270466373037598,157,141,1,141
0.055911,1,1,-1.2838768503466331,157,140,1,140
0.056687,1,1,-1.2962595307831368,158,139,1,139
0.057464,1,1,-1.30759091602552,158,137,1,137
0.05824,1,1,-1.317856501340722,158,136,1,136
0.059017,1,1,-1.3270437757250364,158,135,1,135
0.059793,1,1,-1.3351482220490027,159,133,1,133
0.06057,1,1,-1.3421703172064556,159,132,1,132
0.061347,1,1,-1.3481105322676843,159,131,1,131
0.062123,1,1,-1.3529713326366337,160,129,1,129
0.0629,1,1,-1.3567531782121458,160,128,1,128
0.063676,1,1,-1.3594545235532298,160,127,1,127
0.064453,1,1,-1.3610658180482573,160,125,1,125
0.065229,1,1,-1.3615755060881198,160,124,1,124
0.066006,1,1,-1.3609620272432437,161,123,1,123
0.066782,1,1,-1.3592008164444955,161,121,1,121
0.067559,1,1,-1.3562593041678441,161,120,1,120
0.068335,1,1,-1.352101916622761,161,118,1,118
0.069112,1,1,-1.3466880759443263,161,117,1,117
0.069888,1,1,-1.3399772003889785,162,115,1,115
0.070665,1,1,-1.331928704533803,162,114,1,114
0.071442,1,1,-1.322504999479375,162,112,1,112
0.072218,1,1,-1.3116754930560122,162,110,1,110
0.072995,1,1,-1.2994165900334143,162,108,1,108
0.073771,1,1,-1.285712692333615,162,107,1,107
0.074548,1,1,-1.2705571992471945,162,105,1,105
0.075324,1,1,-1.253950507652594,163,103,1,103
0.076101,1,1,-1.2359000122385864,163,102,1,102
0.076877,1,1,-1.216419105729668,163,100,11,100
0.077654,1,1,-1.195525179114419,163,98,53,98
0.07843,1,1,-1.1732396218766745,163,97,97,97
0.079207,1,1,-1.149583822229411,163,95,142,95
0.079983,1,1,-1.1245841673513257,163,93,187,93
0.08076,1,1,-1.0982660436259248,163,92,234,92
0.081537,1,1,-1.0706628368830668,163,90,255,90
0.082313,1,1,-1.0418049326428667,163,89,255,89
0.08309,1,1,-1.0117337163618738,163,88,255,88
0.083866,1,1,-0.9804895736813827,163,86,255,86
0.084643,1,1,-0.9481188906777864,164,85,255,85
0.085419,1,1,-0.9146730541148806,164,84,255,84
0.086196,1,1,-0.880203451697947,164,83,255,83
0.086972,1,1,-0.8447634723295817,164,81,255,81
0.087749,1,1,-0.8084055063671022,164,80,255,80
0.088525,1,1,-0.7711829458814409,164,79,255,79
0.089302,1,1,-0.7331481849174042,164,79,255,79
0.090079,1,1,-0.6943496197551706,164,78,255,78
0.090855,1,1,-0.6548366491728821,164,77,255,77
0.091632,1,1,-0.614655674710277,164,76,255,76
0.092408,1,1,-0.5738501009331437,164,75,255,75
0.093185,1,1,-0.5324673356985498,164,75,255,75
0.093961,1,1,-0.49054979042068414,164,74,255,74
0.094738,1,1,-0.4481408803371461,164,74,255,74
0.095514,1,1,-0.40528502477562917,164,73,255,73
0.096291,1,1,-0.36202264742081075,164,73,255,73
0.097067,1,1,-0.31839717658133326,164,72,255,72
0.097844,1,1,-0.27444904545675514,164,72,255,72
0.09862,1,1,-0.23021669240429227,164,72,255,72
0.099397,3,1,-0.1857395612052667,164,72,255,72
0.100174,7,1,-0.14105610133109672,164,71,255,71
0.10095,12,1,-0.09620276820871296,164,71,255,71
0.101727,17,1,-0.05121602348522303,164,71,255,71
0.102503,22,1,-0.006134335291776942,164,71,255,71
0.10328,27,1,0.039005821493623596,164,71,255,71
0.104056,32,1,0.08416596498443916,164,71,255,71
0.104833,36,1,0.12930860602515096,164,71,255,71
0.105609,41,1,0.17439424793227537,164,71,255,71
0.106386,46,1,0.21938638623689938,164,72,255,72
0.107162,51,1,0.26424650842892367,164,72,255,72
0.107939,55,1,0.30893809370309944,164,72,255,72
0.108715,60,1,0.3534246127070362,164,72,255,72
0.109492,65,1,0.397671527291353,164,73,255,73
0.110269,70,1,0.4416422902619796,164,73,255,73
0.111045,74,1,0.4853053451349052,164,74,255,74
0.111822,79,1,0.5286251258934103,164,74,255,74
0.112598,83,1,0.5715680567479147,164,75,255,75
0.113375,88,1,0.6141005518986378,164,75,255,75
0.114151,92,1,0.6561870153011011,164,76,255,76
0.114928,97,1,0.6977938404347129,164,76,255,76
0.115704,101,1,0.738886410074509,164,77,255,77
0.116481,105,1,0.7794300960661876,164,78,255,78
0.117257,109,1,0.8193902591045624,164,79,255,79
0.118034,114,1,0.8587342485155358,164,79,255,79
0.11881,118,1,0.8974304020418116,164,80,255,80
0.119587,122,1,0.9354450456323108,164,81,255,81
0.120364,125,1,0.9727484932355542,164,82,255,82
0.12114,129,1,1.0093080465970874,164,83,255,83
0.121917,133,1,1.0450919950609694,164,84,255,84
0.122693,137,1,1.0800676153756128,165,85,255,85
0.12347,140,1,1.1142031715039378,165,86,255,86
0.124246,143,1,1.147464914438071,165,87,255,87
0.125023,147,1,1.1798180820185762,165,88,255,88
0.125799,150,1,1.2112318987584145,165,90,255,90
0.126576,153,1,1.2416755756716997,165,91,255,91
0.127352,156,1,1.2711203101073465,165,92,255,92
0.128129,159,1,1.299537285587754,165,93,255,93
0.128905,162,1,1.3269056716525796,165,95,255,95
0.129682,164,1,1.3532036237077152,165,96,255,96
0.130459,167,1,1.3784122828795211,165,97,255,97
0.131235,169,1,1.4025137758744648,165,99,255,99
0.132012,171,1,1.4254942148441911,166,100,255,100
0.132788,173,1,1.4473366972561597,166,102,255,102
0.133565,175,1,1.4680273057698872,166,103,255,103
0.134341,177,1,1.4875521081188834,166,105,255,105
0.135118,179,1,1.5059011569983778,166,106,255,106
0.135894,180,1,1.523064489958869,166,108,255,108
0.136671,182,1,1.539038129305601,166,109,255,109
0.137447,183,1,1.5538220820040292,166,111,255,111
0.138224,184,1,1.567424339591304,166,112,255,112
0.139,185,1,1.5798538780938474,166,114,255,114
0.139777,186,1,1.591129657951065,166,115,255,115
0.140554,187,1,1.6012726239452997,166,116,255,116
0.14133,188,1,1.61030570513801,166,118,255,118
0.142107,188,1,1.6182528148122406,166,119,255,119
0.142883,189,1,1.6251358504214726,166,120,255,120
0.14366,189,1,1.6309746935447793,166,122,255,122
0.144436,189,1,1.635783209848442,166,123,255,123
0.145213,189,1,1.6395692490539775,166,124,255,124
0.145989,189,1,1.6423386449126618,166,126,255,126
0.146766,189,1,1.6440872151865553,167,127,255,127
0.147542,189,1,1.6448097616360116,167,128,255,128
0.148319,188,1,1.6444960700137798,167,129,255,129
0.149095,188,1,1.6431329100655552,166,131,255,131
0.149872,187,1,1.6407090355371612,166,132,255,132
0.150649,186,1,1.6372121841882898,166,133,255,133
0.151425,185,1,1.6326380778127942,166,135,255,135
0.152202,184,1,1.6269874222655731,166,136,255,136
0.152978,183,1,1.620269907496014,166,137,255,137
0.153755,182,1,1.6125032075880004,166,139,255,139
0.154531,180,1,1.6037129808064834,166,140,255,140
0.155308,179,1,1.5939298696505508,166,141,255,141
0.156084,177,1,1.5831905009130935,166,142,255,142
0.156861,175,1,1.571533485746897,166,143,225,143
0.157637,174,1,1.5589974197372347,166,144,149,144
0.158414,172,1,1.5456148829809275,166,146,74,146
0.15919,170,1,1.5314194401717973,166,147,1,147
0.159967,168,1,1.5164326406925634,166,147,1,147
0.160744,165,1,1.5006720187130194,166,148,1,148
0.16152,163,1,1.484148093294541,165,149,1,149
0.162297,161,1,1.4668643685009142,165,150,1,150
0.163073,158,1,1.4488153335153104,165,151,1,151
0.16385,156,1,1.4299944627634749,165,152,1,152
0.164626,153,1,1.4103872160430369,165,153,1,153
0.165403,150,1,1.389980038658849,165,154,1,154
0.166179,147,1,1.368753361564399,165,155,1,155
0.166956,145,1,1.3466916015090884,165,156,1,156
0.167732,141,1,1.3237751611914383,164,157,1,157
0.168509,138,1,1.2999914294180666,164,158,1,158
0.169285,135,1,1.2753287812684582,164,160,1,160
0.170062,132,1,1.249781578265336,164,161,1,161
0.170839,128,1,1.2233501685506687,164,162,1,162
0.171615,125,1,1.1960408870671637,164,163,1,163
0.172392,121,1,1.1678710557452183,164,164,1,164
0.173168,118,1,1.1388629836951885,163,165,1,165
0.173945,114,1,1.1090499674049186,163,166,1,166
0.174721,110,1,1.0784692909424411,163,167,1,167
0.175498,106,1,1.047166226163757,163,168,1,168
0.176274,102,1,1.0151890329256148,163,168,1,168
0.177051,98,1,0.9825899593031452,163,169,1,169
0.177827,94,1,0.949422241812281,163,170,1,170
0.178604,89,1,0.9157411056368737,163,171,1,171
0.17938,85,1,0.8815997648603994,162,171,1,171
0.180157,81,1,0.847050422702115,162,172,1,172
0.180934,76,1,0.8121432717576187,162,172,1,172
0.18171,72,1,0.7769274942436725,162,172,1,172
0.182487,67,1,0.7414492622471328,162,173,1,173
0.183263,63,1,0.7057547379779587,162,173,1,173
0.18404,58,1,0.669886074026104,162,173,1,173
0.184816,54,1,0.6338864136222631,162,173,1,173
0.185593,49,1,0.5977968909022522,162,174,1,174
0.186369,45,1,0.5616546311749865,162,174,1,174
0.187146,40,1,0.5254967511939121,161,174,1,174
0.187922,36,1,0.489358359431725,161,174,1,174
0.188699,31,1,0.4532715563583612,161,174,1,174
0.189475,27,1,0.4172674347219938,161,174,1,174
0.190252,22,1,0.3813740798330259,161,173,1,173
0.191029,18,1,0.3456185698508958,161,173,1,173
0.191805,13,1,0.31002397607357834,161,173,1,173
0.192582,9,1,0.27461536322967367,161,173,1,173
0.193358,4,1,0.23941378977288716,161,173,1,173
0.194135,1,1,0.20443830817886344,161,173,1,173
0.194911,1,1,0.16970896524419396,161,172,1,172
0.195688,1,1,0.13523980238744046,161,172,1,172
0.196464,1,1,0.10104585595215114,161,172,1,172
0.197241,1,1,0.06713715751159621,161,171,1,171
0.198017,1,1,0.033522734175158435,161,171,1,171
0.198794,1,1,0.00020460889625369057,161,171,1,171
0.19957,1,1,-0.03281319921832847,161,170,1,170
0.200347,1,1,-0.06553367459788055,161,170,1,170
0.201124,1,1,-0.09796280489608115,161,170,1,170
0.2019,1,1,-0.1301075806783103,161,169,1,169
0.202677,1,1,-0.16197899510815578,161,169,1,169
0.203453,1,1,-0.193589043633148,161,169,1,169
0.20423,1,1,-0.2249507236699227,161,169,1,169
0.205006,1,1,-0.256077034288933,161,168,1,168
0.205783,1,1,-0.2869799758988349,161,168,1,168
0.206559,1,1,-0.31767054993068,161,168,1,168
0.207336,1,1,-0.3481567585220505,161,168,1,168
0.208112,1,1,-0.3784426042012585,161,168,1,168
0.208889,1,1,-0.40852908957178896,161,167,1,167
0.209665,1,1,-0.43841221699700816,161,167,1,167
0.210442,1,1,-0.46808098828537065,161,167,1,167
0.211219,1,1,-0.4975204043761887,161,167,1,167
0.211995,1,1,-0.5267064650261274,161,166,1,166
0.212772,1,1,-0.5556121684965434,161,166,1,166
0.213548,1,1,-0.5842045112417688,161,166,1,166
0.214325,1,1,-0.6124454875985429,161,165,1,165
0.215101,1,1,-0.6402930894765884,161,165,1,165
0.215878,1,1,-0.6677043060505394,161,164,1,164
0.216654,1,1,-0.6946311234533749,161,164,1,164
0.217431,1,1,-0.7210305244713697,161,163,1,163
0.218207,1,1,-0.7468564882407698,161,162,1,162
0.218984,1,1,-0.7720639899462404,161,161,1,161
0.21976,1,1,-0.7966140005212895,161,161,1,161
0.220537,1,1,-0.8204644863506777,160,160,1,160
0.221314,1,1,-0.8435794089749848,160,159,1,159
0.22209,1,1,-0.8659237247974678,160,158,1,158
0.222867,1,1,-0.8874613847932667,160,157,1,157
0.223643,1,1,-0.908162334221122,160,156,1,156
0.22442,1,1,-0.9279955123376363,160,155,1,155
0.225196,1,1,-0.9469328521142206,160,154,1,154
0.225973,1,1,-0.9649512799568438,160,153,1,153
0.226749,1,1,-0.9820277154286368,159,152,1,152
0.227526,1,1,-0.998147070975525,159,151,1,151
0.228302,1,1,-1.013295251654905,159,149,1,149
0.229079,1,1,-1.027465154867503,159,148,1,148
0.229855,1,1,-1.0406516700925081,159,147,1,147
0.230632,1,1,-1.052855678626041,159,146,1,146
0.231409,1,1,-1.0640780533230745,158,145,1,145
0.232185,1,1,-1.0743236583428875,158,144,1,144
0.232962,1,1,-1.0835993488981193,158,142,1,142
0.233738,1,1,-1.0919099710075102,158,141,1,141
0.234515,1,1,-1.0992633612524656,158,140,1,140
0.235291,1,1,-1.105668346537331,157,139,1,139
0.236068,1,1,-1.1111357438537615,157,138,1,138
0.236844,1,1,-1.1156783600489315,157,137,1,137
0.237621,1,1,-1.1193109915979014,157,136,1,136
0.238397,1,1,-1.122050424380044,156,135,1,135
0.239174,1,1,-1.1239184334597148,156,134,1,134
0.23995,1,1,-1.1249357828711453,156,133,1,133
0.240727,1,1,-1.1251282254076762,156,132,1,132
0.241504,1,1,-1.1245165024153323,155,131,1,131
0.24228,1,1,-1.123122343590843,155,130,1,130
0.243057,1,1,-1.1209644667841216,155,129,1,129
0.243833,1,1,-1.118056577805318,154,128,1,128
0.24461,1,1,-1.1144063702364284,154,127,1,127
0.245386,1,1,-1.1100185252475017,154,126,1,126
0.246163,1,1,-1.1048907114175552,153,125,1,125
0.246939,1,1,-1.0990145845601718,153,125,1,125
0.247716,1,1,-1.0923787875538586,153,124,1,124
0.248492,1,1,-1.0849689501771949,152,123,1,123
0.249269,1,1,-1.0767676889487572,152,122,1,122
0.250046,1,1,-1.0677556069719913,152,121,1,121
0.250822,1,1,-1.0579162937848134,151,120,57,120
0.251599,1,1,-1.0472383252142814,151,119,132,119
0.252375,1,1,-1.0357122632360758,151,118,206,118
0.253152,1,1,-1.0233376558389966,150,117,255,117
0.253928,1,1,-1.010121036894398,150,116,255,116
0.254705,1,1,-0.996075926030647,150,115,255,115
0.255481,1,1,-0.9812198285125738,149,114,255,114
0.256258,1,1,-0.9655812351259897,149,113,255,113
0.257034,1,1,-0.9491896220671446,148,112,255,112
0.257811,1,1,-0.932078450837316,148,111,255,111
0.258587,1,1,-0.9142871681424234,148,110,255,110
0.259364,1,1,-0.8958532057976692,148,109,255,109
0.260141,1,1,-0.8768209806372913,147,109,255,109
0.260917,1,1,-0.8572328944293027,147,108,255,108
0.261694,1,1,-0.8371353337953824,147,107,255,107
0.26247,1,1,-0.8165776701357925,146,107,255,107
0.263247,1,1,-0.7956122595593137,146,106,255,106
0.264023,1,1,-0.7742924428182781,146,106,255,106
0.2648,1,1,-0.7526765452486149,146,105,255,105
0.265576,1,1,-0.7308238767149389,145,105,255,105
0.266353,1,1,-0.7087927315606757,145,105,255,105
0.267129,1,1,-0.6866453885631882,145,105,255,105
0.267906,1,1,-0.6644421108938956,145,104,255,104
0.268682,1,1,-0.6422411460833367,145,104,255,104
0.269459,1,1,-0.6201017259912754,145,104,255,104
0.270236,1,1,-0.5980800667816768,145,104,255,104
0.271012,1,1,-0.5762323689026438,144,105,255,105
0.271789,1,1,-0.5546118170712118,144,105,255,105
0.272565,1,1,-0.5332715802630946,144,105,255,105
0.273342,1,1,-0.5122648117072199,144,105,255,105
0.274118,1,1,-0.4916406488851317,144,106,255,106
0.274895,1,1,-0.47144921353517444,144,106,255,106
0.275671,1,1,-0.45173761166145593,144,107,255,107
0.276448,1,1,-0.4325509335475772,145,107,255,107
0.277224,1,1,-0.41393025377504833,145,108,255,108
0.278001,1,1,-0.3959136312464238,145,108,255,108
0.278777,1,1,-0.37853510921306066,145,109,255,109
0.279554,1,1,-0.3618257153075312,145,110,255,110
0.280331,1,1,-0.3458124615805977,145,111,255,111
0.281107,1,1,-0.33051834454277496,145,111,255,111
0.281884,1,1,-0.31596434521036443,146,112,255,112
0.28266,1,1,-0.30216742915602013,146,113,255,113
0.283437,1,1,-0.289145546563736,146,114,255,114
0.284213,1,1,-0.2769106322882512,146,115,255,115
0.28499,1,1,-0.26547360591879754,146,116,255,116
0.285766,1,1,-0.2548453718472327,147,116,255,116
0.286543,1,1,-0.24502981934044157,147,117,255,117
0.287319,1,1,-0.23602982261697966,147,118,255,118
0.288096,1,1,-0.227844240927958,147,119,255,119
0.288872,1,1,-0.2204679186420912,148,120,255,120
0.289649,1,1,-0.21389168533487019,148,121,255,121
0.290426,1,1,-0.2081063558818344,148,122,255,122
0.291202,1,1,-0.2030977305558691,148,122,255,122
0.291979,1,1,-0.198850595128567,149,123,255,123
0.292755,1,1,-0.19535172097547077,149,124,255,124
0.293532,1,1,-0.19258486518532522,149,125,255,125
0.294308,1,1,-0.19053777067312422,149,126,255,126
0.295085,1,1,-0.18919816629701583,150,126,255,126
0.295861,1,1,-0.1885547669790004,150,127,255,127
0.296638,1,1,-0.18859827382936917,150,128,255,128
0.297414,1,1,-0.1893213742748251,150,129,255,129
0.298191,1,1,-0.19071374219026552,151,129,255,129
0.298967,1,1,-0.19277003803413328,151,130,255,130
0.299744,1,1,-0.19548190898735476,151,131,255,131
0.300521,1,1,-0.19883898909578646,151,131,255,131
0.301297,1,1,-0.20283289941610627,151,132,255,132
0.302074,1,1,-0.20744924816510207,152,133,255,133
0.30285,1,1,-0.21267263087234736,152,133,255,133
0.303627,1,1,-0.21848463053618872,152,134,255,134
0.304403,1,1,-0.22486381778295697,152,135,255,135
0.30518,1,1,-0.23178675102944077,152,135,255,135
0.305956,1,1,-0.23922697664851741,152,136,255,136
0.306733,1,1,-0.24715602913786297,152,136,255,136
0.307509,1,1,-0.25554543129175167,153,137,255,137
0.308286,1,1,-0.26436269437586885,153,137,255,137
0.309062,1,1,-0.2735763183050774,153,138,255,138
0.309839,1,1,-0.2831537918240795,153,138,255,138
0.310616,1,1,-0.2930595926909347,153,138,255,138
0.311392,1,1,-0.30325918786337697,153,138,255,138
0.312169,1,1,-0.3137130336878753,153,139,255,139
0.312945,1,1,-0.32438357609135543,153,139,255,139
0.313722,1,1,-0.3352282507755815,153,139,255,139
0.314498,1,1,-0.3462014834141109,153,139,255,139
0.315275,1,1,-0.35725968985175605,153,139,255,139
0.316051,1,1,-0.36835527630653364,153,139,255,139
0.316828,1,1,-0.37943963957401305,153,139,255,139
0.317604,1,1,-0.39046316723396,153,139,255,139
0.318381,1,1,-0.4013782378593311,153,139,255,139
0.319157,1,1,-0.41213222122745247,153,138,255,138
0.319934,1,1,-0.42267647853335877,153,138,255,138
0.320711,1,1,-0.432958362605224,153,138,255,138
