Time (s),WAA_angle,WAA_disp,WFE_angle,WFE_disp,EPS_angle,EPS_disp,EFE_angle,EFE_disp
0.0,-24.119445,0.0,-20.028946,0.0,51.04558,0.0,62.633058,0.0
0.000787,-24.119307,0.0,-20.028495,0.0,51.045404,-0.0,62.632936,-0.0
0.001573,-24.119159,0.0,-20.028006,0.0,51.045214,-0.0,62.632801,-0.0
0.00236,-24.119003,0.0,-20.027483,0.0,51.045011,-0.0,62.632651,-0.0
0.003146,-24.118841,0.0,-20.026928,1e-06,51.044799,-0.0,62.632488,-0.0
0.003933,-24.118675,1e-06,-20.026346,3e-06,51.044578,-1e-06,62.632312,-1e-06
0.004719,-24.118507,2e-06,-20.025741,7e-06,51.044351,-3e-06,62.632124,-2e-06
0.005506,-24.118339,4e-06,-20.025118,1.5e-05,51.044119,-6e-06,62.631925,-4e-06
0.006292,-24.118175,8e-06,-20.024481,2.7e-05,51.043885,-1e-05,62.631716,-8e-06
0.007079,-24.118017,1.4e-05,-20.023835,4.6e-05,51.043651,-1.8e-05,62.631501,-1.3e-05
0.007865,-24.117866,2.2e-05,-20.023184,7.2e-05,51.04342,-2.8e-05,62.63128,-2e-05
0.008652,-24.117726,3.3e-05,-20.022531,0.00011,51.043193,-4.2e-05,62.631056,-3.1e-05
0.009438,-24.117598,4.7e-05,-20.021879,0.000159,51.042973,-6.1e-05,62.630832,-4.6e-05
0.010225,-24.117483,6.6e-05,-20.021231,0.000224,51.042761,-8.6e-05,62.63061,-6.4e-05
0.011012,-24.117382,8.9e-05,-20.020588,0.000304,51.042559,-0.000117,62.630393,-8.8e-05
0.011798,-24.117295,0.000117,-20.019951,0.000404,51.04237,-0.000154,62.630184,-0.000118
0.012585,-24.117224,0.000151,-20.019321,0.000523,51.042193,-0.0002,62.629985,-0.000154
0.013371,-24.117167,0.00019,-20.018696,0.000663,51.042031,-0.000253,62.629799,-0.000196
0.014158,-24.117125,0.000234,-20.018078,0.000827,51.041885,-0.000314,62.629629,-0.000246
0.014944,-24.117097,0.000284,-20.017464,0.001013,51.041754,-0.000383,62.629477,-0.000303
0.015731,-24.117082,0.000339,-20.016854,0.001223,51.04164,-0.00046,62.629346,-0.000369
0.016517,-24.11708,0.0004,-20.016246,0.001457,51.041543,-0.000546,62.629237,-0.000441
0.017304,-24.11709,0.000464,-20.015639,0.001713,51.041462,-0.000639,62.629151,-0.000521
0.01809,-24.11711,0.000532,-20.015032,0.001991,51.041396,-0.000739,62.629091,-0.000609
0.018877,-24.117141,0.000603,-20.014424,0.00229,51.041346,-0.000844,62.629056,-0.000703
0.019663,-24.11718,0.000675,-20.013815,0.002608,51.041309,-0.000955,62.629048,-0.000803
0.02045,-24.117228,0.000749,-20.013205,0.002943,51.041285,-0.00107,62.629066,-0.000907
0.021237,-24.117282,0.000822,-20.012593,0.003292,51.041271,-0.001187,62.62911,-0.001016
0.022023,-24.117342,0.000894,-20.011982,0.003654,51.041265,-0.001305,62.629178,-0.001128
0.02281,-24.117408,0.000963,-20.011372,0.004025,51.041264,-0.001423,62.62927,-0.00124
0.023596,-24.117478,0.001028,-20.010766,0.004402,51.041267,-0.001539,62.629383,-0.001352
0.024383,-24.117551,0.001088,-20.010166,0.004783,51.041269,-0.001652,62.629515,-0.001463
0.025169,-24.117627,0.001142,-20.009575,0.005165,51.041268,-0.001759,62.629663,-0.001569
0.025956,-24.117705,0.001189,-20.008996,0.005544,51.041261,-0.00186,62.629825,-0.001671
0.026742,-24.117786,0.001227,-20.008433,0.005918,51.041243,-0.001953,62.629997,-0.001765
0.027529,-24.117868,0.001256,-20.007888,0.006284,51.041212,-0.002037,62.630177,-0.001849
0.028315,-24.117952,0.001276,-20.007366,0.006639,51.041164,-0.002109,62.630361,-0.001923
0.029102,-24.118038,0.001285,-20.00687,0.006981,51.041094,-0.002171,62.630546,-0.001985
0.029888,-24.118128,0.001283,-20.006402,0.007308,51.041,-0.002219,62.630729,-0.002032
0.030675,-24.118221,0.00127,-20.005967,0.007617,51.040879,-0.002255,62.630908,-0.002064
0.031462,-24.11832,0.001246,-20.005567,0.007906,51.040726,-0.002277,62.631079,-0.002079
0.032248,-24.118424,0.00121,-20.005205,0.008175,51.040539,-0.002285,62.631239,-0.002076
0.033035,-24.118536,0.001164,-20.004882,0.00842,51.040315,-0.00228,62.631386,-0.002055
0.033821,-24.118657,0.001106,-20.004602,0.008641,51.040052,-0.002262,62.631517,-0.002015
0.034608,-24.118789,0.001038,-20.004366,0.008838,51.039747,-0.002231,62.63163,-0.001956
0.035394,-24.118932,0.00096,-20.004176,0.009007,51.039398,-0.002189,62.631722,-0.001877
0.036181,-24.119088,0.000874,-20.004032,0.00915,51.039005,-0.002137,62.631792,-0.00178
0.036967,-24.119259,0.000778,-20.003934,0.009265,51.038566,-0.002077,62.631837,-0.001665
0.037754,-24.119444,0.000675,-20.003883,0.009351,51.03808,-0.00201,62.631855,-0.001532
0.03854,-24.119646,0.000565,-20.003876,0.009408,51.037548,-0.001938,62.631846,-0.001384
0.039327,-24.119862,0.000449,-20.003913,0.009436,51.03697,-0.001863,62.631807,-0.001221
0.040114,-24.120094,0.000328,-20.00399,0.009434,51.036348,-0.001789,62.631739,-0.001045
0.0409,-24.12034,0.000202,-20.004103,0.009401,51.035683,-0.001716,62.63164,-0.000859
0.041687,-24.120597,7.3e-05,-20.004246,0.009337,51.03498,-0.001649,62.63151,-0.000664
0.042473,-24.120865,-6e-05,-20.004415,0.009243,51.034241,-0.001589,62.63135,-0.000464
0.04326,-24.121138,-0.000195,-20.004602,0.009117,51.033471,-0.00154,62.631161,-0.000259
0.044046,-24.121413,-0.000332,-20.004799,0.00896,51.032677,-0.001504,62.630943,-5.4e-05
0.044833,-24.121687,-0.000471,-20.004998,0.008771,51.031863,-0.001483,62.630698,0.000149
0.045619,-24.121953,-0.000611,-20.00519,0.008551,51.031038,-0.00148,62.630427,0.000348
0.046406,-24.122207,-0.000752,-20.005367,0.008299,51.030208,-0.001497,62.630132,0.00054
0.047192,-24.122445,-0.000893,-20.005521,0.008017,51.02938,-0.001537,62.629816,0.000722
0.047979,-24.122661,-0.001035,-20.005642,0.007703,51.02856,-0.001601,62.629479,0.000891
0.048765,-24.122854,-0.001178,-20.005723,0.00736,51.027755,-0.001691,62.629124,0.001045
0.049552,-24.123018,-0.00132,-20.005759,0.006987,51.026971,-0.001807,62.628752,0.001182
0.050339,-24.123152,-0.001463,-20.005743,0.006587,51.026214,-0.001952,62.628366,0.001299
0.051125,-24.123255,-0.001605,-20.005671,0.006159,51.025487,-0.002124,62.627966,0.001395
0.051912,-24.123326,-0.001747,-20.00554,0.005707,51.024795,-0.002324,62.627553,0.001467
0.052698,-24.123364,-0.001888,-20.005348,0.005232,51.024141,-0.002552,62.627129,0.001515
0.053485,-24.123371,-0.002027,-20.005093,0.004737,51.023529,-0.002806,62.626694,0.001538
0.054271,-24.123348,-0.002165,-20.004777,0.004225,51.022959,-0.003085,62.626249,0.001535
0.055058,-24.123297,-0.0023,-20.004399,0.003698,51.022436,-0.003387,62.625795,0.001504
0.055844,-24.12322,-0.002431,-20.003962,0.003161,51.021959,-0.003709,62.625331,0.001447
0.056631,-24.123119,-0.002558,-20.003469,0.002617,51.021529,-0.004049,62.62486,0.001362
0.057417,-24.122999,-0.002679,-20.002922,0.002069,51.021147,-0.004403,62.62438,0.001251
0.058204,-24.122862,-0.002793,-20.002326,0.001524,51.020813,-0.004768,62.623893,0.001115
0.05899,-24.122712,-0.002899,-20.001686,0.000985,51.020526,-0.00514,62.623399,0.000954
0.059777,-24.122554,-0.002995,-20.001005,0.000456,51.020285,-0.005514,62.622899,0.000769
0.060564,-24.12239,-0.003079,-20.00029,-5.7e-05,51.020088,-0.005886,62.622393,0.000562
0.06135,-24.122227,-0.003152,-19.999546,-0.000551,51.019933,-0.006251,62.621882,0.000335
0.062137,-24.122068,-0.00321,-19.998781,-0.001019,51.019818,-0.006606,62.621367,9e-05
0.062923,-24.121917,-0.003253,-19.998,-0.001458,51.019742,-0.006945,62.620849,-0.000172
0.06371,-24.12178,-0.003279,-19.99721,-0.001864,51.0197,-0.007263,62.62033,-0.000448
0.064496,-24.121662,-0.003288,-19.996419,-0.002233,51.019691,-0.007556,62.619811,-0.000737
0.065283,-24.121565,-0.003279,-19.995632,-0.002562,51.019712,-0.007821,62.619293,-0.001036
0.066069,-24.121496,-0.00325,-19.994857,-0.002847,51.019759,-0.008052,62.618778,-0.001342
0.066856,-24.121457,-0.003202,-19.994099,-0.003086,51.01983,-0.008247,62.618268,-0.001654
0.067642,-24.121451,-0.003135,-19.993363,-0.003277,51.019922,-0.008402,62.617764,-0.00197
0.068429,-24.121481,-0.003048,-19.992652,-0.003419,51.02003,-0.008513,62.617268,-0.002287
0.069215,-24.121549,-0.002942,-19.99197,-0.003512,51.020151,-0.00858,62.616782,-0.002604
0.070002,-24.121654,-0.002818,-19.991317,-0.003554,51.020282,-0.008599,62.616308,-0.002917
0.070789,-24.121796,-0.002677,-19.990694,-0.003548,51.020418,-0.008569,62.615847,-0.003226
0.071575,-24.121975,-0.00252,-19.9901,-0.003494,51.020553,-0.00849,62.615401,-0.003529
0.072362,-24.122186,-0.002351,-19.989534,-0.003395,51.020683,-0.008361,62.614971,-0.003824
0.073148,-24.122427,-0.002169,-19.988992,-0.003254,51.020802,-0.008183,62.61456,-0.00411
0.073935,-24.122692,-0.001979,-19.98847,-0.003072,51.020904,-0.007955,62.614169,-0.004384
0.074721,-24.122977,-0.001782,-19.987966,-0.002856,51.020984,-0.00768,62.613799,-0.004646
0.075508,-24.123275,-0.001581,-19.987475,-0.002608,51.021034,-0.00736,62.613452,-0.004895
0.076294,-24.123581,-0.00138,-19.986993,-0.002333,51.02105,-0.006996,62.613128,-0.00513
0.077081,-24.123889,-0.001181,-19.986516,-0.002037,51.021026,-0.006591,62.612828,-0.005349
0.077867,-24.124194,-0.000987,-19.98604,-0.001725,51.020958,-0.006149,62.612552,-0.005552
0.078654,-24.12449,-0.000802,-19.985561,-0.001401,51.020843,-0.005673,62.612301,-0.005737
0.07944,-24.124774,-0.000628,-19.985077,-0.001072,51.020677,-0.005168,62.612075,-0.005905
0.080227,-24.125042,-0.000467,-19.984585,-0.000742,51.020461,-0.004637,62.611871,-0.006054
0.081014,-24.125292,-0.000323,-19.984084,-0.000416,51.020196,-0.004085,62.61169,-0.006184
0.0818,-24.125522,-0.000198,-19.983574,-0.0001,51.019883,-0.003517,62.61153,-0.006295
0.082587,-24.12573,-9.3e-05,-19.983054,0.000202,51.019526,-0.002938,62.61139,-0.006385
0.083373,-24.125918,-1e-05,-19.982527,0.000487,51.019133,-0.002353,62.611269,-0.006454
0.08416,-24.126085,5e-05,-19.981993,0.00075,51.018709,-0.001767,62.611164,-0.006503
0.084946,-24.126231,8.7e-05,-19.981457,0.000989,51.018263,-0.001186,62.611075,-0.006531
0.085733,-24.126359,0.0001,-19.980921,0.001201,51.017803,-0.000615,62.611001,-0.006536
0.086519,-24.126469,9e-05,-19.980388,0.001384,51.01734,-5.8e-05,62.61094,-0.006521
0.087306,-24.126564,5.7e-05,-19.979863,0.001538,51.016882,0.000479,62.610891,-0.006483
0.088092,-24.126646,4e-06,-19.979349,0.00166,51.016439,0.000992,62.610855,-0.006424
0.088879,-24.126716,-7e-05,-19.978849,0.001752,51.01602,0.001476,62.610831,-0.006342
0.089665,-24.126778,-0.000161,-19.978367,0.001812,51.015631,0.001929,62.610819,-0.006239
0.090452,-24.126834,-0.000267,-19.977906,0.001843,51.01528,0.002346,62.610819,-0.006115
0.091239,-24.126888,-0.000387,-19.977467,0.001845,51.014973,0.002725,62.610833,-0.00597
0.092025,-24.126942,-0.000516,-19.977052,0.001819,51.014716,0.003064,62.610862,-0.005804
0.092812,-24.126999,-0.000653,-19.976664,0.001767,51.014512,0.003361,62.610907,-0.005618
0.093598,-24.127063,-0.000794,-19.976304,0.001692,51.014365,0.003615,62.61097,-0.005412
0.094385,-24.127136,-0.000936,-19.975972,0.001595,51.014278,0.003827,62.611053,-0.005188
0.095171,-24.127222,-0.001076,-19.975669,0.001479,51.014254,0.003997,62.611158,-0.004945
0.095958,-24.127323,-0.001213,-19.975394,0.001346,51.014294,0.004126,62.611289,-0.004686
0.096744,-24.127442,-0.001342,-19.975149,0.001197,51.014398,0.004217,62.611447,-0.00441
0.097531,-24.127581,-0.001462,-19.974933,0.001036,51.014569,0.004272,62.611637,-0.00412
0.098317,-24.127743,-0.001571,-19.974744,0.000863,51.014803,0.004295,62.611861,-0.003815
0.099104,-24.127928,-0.001666,-19.974582,0.00068,51.015101,0.004289,62.612121,-0.003497
0.09989,-24.128137,-0.001747,-19.974447,0.000489,51.01546,0.004259,62.612421,-0.003166
0.100677,-24.128371,-0.001813,-19.974335,0.000292,51.015876,0.004211,62.612763,-0.002825
0.101464,-24.128629,-0.001862,-19.974246,8.9e-05,51.016343,0.004149,62.613149,-0.002473
0.10225,-24.128909,-0.001895,-19.974178,-0.00012,51.016856,0.004079,62.613581,-0.002112
0.103037,-24.129208,-0.001912,-19.974129,-0.000333,51.017406,0.004006,62.614058,-0.001742
0.103823,-24.129525,-0.001913,-19.974097,-0.000551,51.017984,0.003937,62.614583,-0.001364
0.10461,-24.129855,-0.0019,-19.97408,-0.000773,51.018581,0.003878,62.615153,-0.000978
0.105396,-24.130195,-0.001873,-19.974077,-0.000999,51.019186,0.003833,62.615767,-0.000586
0.106183,-24.13054,-0.001834,-19.974084,-0.00123,51.019789,0.003808,62.616425,-0.000186
0.106969,-24.130887,-0.001785,-19.974101,-0.001467,51.02038,0.003808,62.617123,0.000221
0.107756,-24.131232,-0.001728,-19.974126,-0.001709,51.02095,0.003838,62.617857,0.000634
0.108542,-24.131572,-0.001665,-19.974156,-0.001958,51.021492,0.003902,62.618626,0.001055
0.109329,-24.131905,-0.001598,-19.97419,-0.002213,51.021998,0.004002,62.619424,0.001482
0.110116,-24.132229,-0.001529,-19.974226,-0.002476,51.022465,0.004143,62.620247,0.001918
0.110902,-24.132544,-0.001461,-19.974262,-0.002747,51.02289,0.004325,62.62109,0.002362
0.111689,-24.132851,-0.001396,-19.974296,-0.003027,51.023271,0.004549,62.621948,0.002814
0.112475,-24.133149,-0.001336,-19.974326,-0.003315,51.02361,0.004816,62.622814,0.003276
0.113262,-24.133441,-0.001282,-19.974351,-0.003613,51.023908,0.005125,62.623684,0.003747
0.114048,-24.133729,-0.001236,-19.974369,-0.00392,51.024167,0.005475,62.62455,0.004229
0.114835,-24.134013,-0.001199,-19.974378,-0.004235,51.024392,0.005863,62.625407,0.004721
0.115621,-24.134298,-0.001172,-19.974377,-0.00456,51.024586,0.006286,62.626248,0.005224
0.116408,-24.134584,-0.001157,-19.974364,-0.004892,51.024753,0.006741,62.627067,0.005737
0.117194,-24.134875,-0.001153,-19.974338,-0.005232,51.024899,0.007222,62.62786,0.006262
0.117981,-24.135173,-0.00116,-19.9743,-0.005579,51.025029,0.007724,62.628622,0.006796
0.118767,-24.135478,-0.001178,-19.974248,-0.005931,51.025146,0.008243,62.629349,0.007341
0.119554,-24.135792,-0.001208,-19.974184,-0.006287,51.025254,0.008772,62.630041,0.007894
0.120341,-24.136117,-0.001247,-19.974108,-0.006646,51.025359,0.009305,62.630694,0.008455
0.121127,-24.136451,-0.001296,-19.974021,-0.007007,51.025462,0.009836,62.63131,0.009021
0.121914,-24.136794,-0.001353,-19.973927,-0.007367,51.025566,0.010359,62.631888,0.009592
0.1227,-24.137144,-0.001418,-19.973828,-0.007724,51.025675,0.010867,62.632431,0.010165
0.123487,-24.137498,-0.001488,-19.973727,-0.008078,51.025789,0.011356,62.632941,0.010738
0.124273,-24.137854,-0.001563,-19.973628,-0.008425,51.025909,0.011819,62.633421,0.011307
0.12506,-24.138207,-0.001641,-19.973535,-0.008765,51.026036,0.012252,62.633873,0.01187
0.125846,-24.138555,-0.001722,-19.973452,-0.009094,51.02617,0.01265,62.634301,0.012423
0.126633,-24.138893,-0.001803,-19.973382,-0.009412,51.02631,0.01301,62.63471,0.012964
0.127419,-24.139218,-0.001884,-19.973329,-0.009717,51.026455,0.013328,62.635101,0.013488
0.128206,-24.139527,-0.001964,-19.973295,-0.010006,51.026605,0.013603,62.635479,0.013993
0.128992,-24.139817,-0.002041,-19.973282,-0.010279,51.026756,0.013831,62.635847,0.014474
0.129779,-24.140088,-0.002115,-19.97329,-0.010534,51.026907,0.014013,62.636207,0.014929
0.130566,-24.140338,-0.002185,-19.973318,-0.01077,51.027057,0.014148,62.636562,0.015353
0.131352,-24.140567,-0.00225,-19.973365,-0.010987,51.027202,0.014237,62.636914,0.015745
0.132139,-24.140777,-0.002309,-19.973427,-0.011183,51.027339,0.01428,62.637264,0.0161
0.132925,-24.140969,-0.002361,-19.9735,-0.01136,51.027466,0.014279,62.637613,0.016417
0.133712,-24.141146,-0.002407,-19.973578,-0.011516,51.027581,0.014236,62.637962,0.016693
0.134498,-24.141308,-0.002445,-19.973656,-0.011653,51.027679,0.014154,62.638312,0.016927
0.135285,-24.141461,-0.002474,-19.973726,-0.01177,51.027759,0.014035,62.638662,0.017116
0.136071,-24.141606,-0.002496,-19.973782,-0.011869,51.027817,0.013883,62.639012,0.017261
0.136858,-24.141746,-0.002508,-19.973817,-0.011951,51.027852,0.013701,62.639363,0.017361
0.137644,-24.141886,-0.00251,-19.973824,-0.012017,51.027862,0.013492,62.639715,0.017416
0.138431,-24.142028,-0.002503,-19.973798,-0.012068,51.027845,0.013261,62.640067,0.017426
0.139217,-24.142176,-0.002485,-19.973732,-0.012105,51.027802,0.013009,62.640422,0.017392
0.140004,-24.142333,-0.002456,-19.973624,-0.012131,51.027732,0.012741,62.640778,0.017316
0.140791,-24.142502,-0.002417,-19.97347,-0.012146,51.027636,0.01246,62.641138,0.017198
0.141577,-24.142684,-0.002366,-19.973268,-0.012152,51.027516,0.012168,62.641504,0.017042
0.142364,-24.142884,-0.002305,-19.973019,-0.012149,51.027374,0.011869,62.641877,0.01685
0.14315,-24.143102,-0.002232,-19.972723,-0.012139,51.027215,0.011564,62.642259,0.016624
0.143937,-24.14334,-0.002148,-19.972384,-0.012123,51.027042,0.011255,62.642655,0.016367
0.144723,-24.143599,-0.002053,-19.972004,-0.0121,51.02686,0.010944,62.643065,0.016081
0.14551,-24.14388,-0.001949,-19.971586,-0.012071,51.026673,0.010632,62.643493,0.015771
0.146296,-24.144182,-0.001834,-19.971137,-0.012036,51.026486,0.010319,62.643943,0.015439
0.147083,-24.144507,-0.00171,-19.970661,-0.011994,51.026304,0.010008,62.644417,0.015089
0.147869,-24.144852,-0.001579,-19.970162,-0.011944,51.026132,0.009696,62.644917,0.014723
0.148656,-24.145218,-0.00144,-19.969645,-0.011885,51.025972,0.009385,62.645446,0.014345
0.149442,-24.145604,-0.001295,-19.969116,-0.011817,51.025829,0.009075,62.646005,0.013958
0.150229,-24.146007,-0.001146,-19.968577,-0.011737,51.025705,0.008764,62.646597,0.013566
0.151016,-24.146425,-0.000994,-19.968033,-0.011644,51.025601,0.008453,62.647221,0.01317
0.151802,-24.146858,-0.00084,-19.967485,-0.011537,51.025517,0.00814,62.647878,0.012775
0.152589,-24.147301,-0.000686,-19.966938,-0.011413,51.025454,0.007826,62.648566,0.012382
0.153375,-24.147753,-0.000533,-19.966392,-0.011271,51.025411,0.007509,62.649285,0.011994
0.154162,-24.148211,-0.000384,-19.965849,-0.01111,51.025387,0.00719,62.65003,0.011613
0.154948,-24.148671,-0.00024,-19.96531,-0.010928,51.02538,0.006867,62.6508,0.011243
0.155735,-24.149131,-0.000102,-19.964776,-0.010724,51.025387,0.006542,62.651589,0.010884
0.156521,-24.149589,2.7e-05,-19.964247,-0.010498,51.025406,0.006213,62.652394,0.010538
0.157308,-24.150041,0.000147,-19.963726,-0.010247,51.025434,0.005882,62.653209,0.010208
0.158094,-24.150486,0.000257,-19.963211,-0.009973,51.025468,0.005548,62.654029,0.009895
0.158881,-24.150923,0.000354,-19.962704,-0.009676,51.025505,0.005212,62.654847,0.0096
0.159667,-24.15135,0.000438,-19.962207,-0.009354,51.025541,0.004876,62.655658,0.009324
0.160454,-24.151767,0.000509,-19.961719,-0.00901,51.025573,0.004539,62.656454,0.009067
0.161241,-24.152175,0.000566,-19.961242,-0.008645,51.025597,0.004204,62.65723,0.008831
0.162027,-24.152575,0.000608,-19.960779,-0.008259,51.02561,0.00387,62.657978,0.008616
0.162814,-24.152967,0.000636,-19.96033,-0.007854,51.025609,0.003541,62.658692,0.008421
0.1636,-24.153355,0.00065,-19.959899,-0.007433,51.02559,0.003216,62.659365,0.008247
0.164387,-24.153739,0.00065,-19.959486,-0.006997,51.025551,0.002897,62.65999,0.008093
0.165173,-24.154121,0.000638,-19.959095,-0.006549,51.025487,0.002586,62.660562,0.007958
0.16596,-24.154506,0.000613,-19.958728,-0.006091,51.025397,0.002283,62.661075,0.00784
0.166746,-24.154894,0.000578,-19.958387,-0.005627,51.025278,0.001989,62.661526,0.007739
0.167533,-24.155287,0.000533,-19.958072,-0.005159,51.025127,0.001706,62.661911,0.007653
0.168319,-24.155689,0.000479,-19.957786,-0.004689,51.024943,0.001433,62.662228,0.007578
0.169106,-24.156099,0.000419,-19.957529,-0.004222,51.024725,0.001172,62.662477,0.007514
0.169892,-24.15652,0.000354,-19.957302,-0.003759,51.024472,0.000922,62.662661,0.007456
0.170679,-24.156953,0.000286,-19.957104,-0.003304,51.024184,0.000683,62.662782,0.007402
0.171466,-24.157396,0.000215,-19.956935,-0.002859,51.023863,0.000454,62.662844,0.007349
0.172252,-24.157849,0.000144,-19.956794,-0.002428,51.02351,0.000236,62.662856,0.007293
0.173039,-24.158311,7.4e-05,-19.956679,-0.002012,51.023129,2.7e-05,62.662824,0.00723
0.173825,-24.158781,7e-06,-19.95659,-0.001614,51.022722,-0.000174,62.662757,0.007157
0.174612,-24.159255,-5.8e-05,-19.956526,-0.001237,51.022295,-0.000369,62.662666,0.00707
0.175398,-24.159732,-0.000118,-19.956483,-0.000882,51.021852,-0.000559,62.662561,0.006964
0.176185,-24.160207,-0.000172,-19.956462,-0.000552,51.021398,-0.000745,62.662452,0.006836
0.176971,-24.160679,-0.00022,-19.956461,-0.000248,51.020937,-0.00093,62.662349,0.006682
0.177758,-24.161142,-0.000263,-19.956478,2.9e-05,51.020475,-0.001116,62.662261,0.006498
0.178544,-24.161595,-0.000298,-19.956512,0.000277,51.020016,-0.001304,62.662196,0.006283
