Time (s),WAA_angle,WAA_disp,WFE_angle,WFE_disp,EPS_angle,EPS_disp,EFE_angle,EFE_disp
0.0,-25.842459,0.0,-19.366253,0.0,57.181399,0.0,63.569457,0.0
0.000775,-25.842319,0.0,-19.366139,0.0,57.181175,-0.0,63.569261,-0.0
0.001549,-25.842174,0.0,-19.366017,0.0,57.18094,-0.0,63.569045,-0.0
0.002324,-25.842025,0.0,-19.365887,0.0,57.180698,-0.0,63.568808,-0.0
0.003098,-25.841874,0.0,-19.365751,0.0,57.180451,-1e-06,63.568552,-1e-06
0.003873,-25.841724,1e-06,-19.365609,1e-06,57.180206,-2e-06,63.568276,-1e-06
0.004647,-25.841578,2e-06,-19.365464,2e-06,57.179966,-3e-06,63.567983,-3e-06
0.005422,-25.84144,4e-06,-19.365317,4e-06,57.179736,-7e-06,63.567674,-6e-06
0.006196,-25.841311,8e-06,-19.36517,6e-06,57.179523,-1.2e-05,63.56735,-1.1e-05
0.006971,-25.841195,1.3e-05,-19.365023,1.1e-05,57.179331,-2e-05,63.567014,-1.9e-05
0.007745,-25.841093,2e-05,-19.364879,1.7e-05,57.179165,-3.2e-05,63.566667,-3.1e-05
0.00852,-25.841008,3e-05,-19.364739,2.6e-05,57.179032,-4.8e-05,63.566311,-4.7e-05
0.009294,-25.840939,4.3e-05,-19.364603,3.8e-05,57.178934,-7e-05,63.565948,-6.9e-05
0.010069,-25.840887,5.9e-05,-19.36447,5.3e-05,57.178875,-9.7e-05,63.565581,-9.7e-05
0.010844,-25.84085,8e-05,-19.364342,7.1e-05,57.17886,-0.00013,63.56521,-0.000133
0.011618,-25.840826,0.000105,-19.364218,9.5e-05,57.178888,-0.00017,63.564838,-0.000178
0.012393,-25.840812,0.000133,-19.364096,0.000122,57.178964,-0.000217,63.564467,-0.000232
0.013167,-25.840805,0.000167,-19.363975,0.000155,57.179086,-0.000271,63.564097,-0.000297
0.013942,-25.8408,0.000204,-19.363855,0.000192,57.179255,-0.000332,63.563729,-0.000373
0.014716,-25.840792,0.000246,-19.363734,0.000235,57.179472,-0.000399,63.563366,-0.00046
0.015491,-25.840776,0.000291,-19.363609,0.000283,57.179734,-0.000471,63.563008,-0.00056
0.016265,-25.840745,0.000339,-19.363481,0.000336,57.180041,-0.000547,63.562656,-0.000672
0.01704,-25.840695,0.00039,-19.363348,0.000393,57.180391,-0.000627,63.562311,-0.000797
0.017814,-25.84062,0.000443,-19.363208,0.000455,57.180781,-0.000708,63.561971,-0.000934
0.018589,-25.840515,0.000498,-19.363062,0.000522,57.181208,-0.000788,63.561639,-0.001084
0.019363,-25.840377,0.000552,-19.362909,0.000592,57.181669,-0.000865,63.561313,-0.001244
0.020138,-25.840201,0.000607,-19.362749,0.000666,57.182161,-0.000937,63.560992,-0.001415
0.020913,-25.839985,0.000661,-19.362583,0.000742,57.18268,-0.001002,63.560677,-0.001596
0.021687,-25.839728,0.000713,-19.362413,0.000821,57.18322,-0.001056,63.560365,-0.001786
0.022462,-25.839429,0.000764,-19.362241,0.000901,57.183777,-0.001099,63.560057,-0.001983
0.023236,-25.839087,0.000812,-19.362069,0.000982,57.184347,-0.001126,63.55975,-0.002186
0.024011,-25.838706,0.000858,-19.361901,0.001064,57.184922,-0.001135,63.559444,-0.002394
0.024785,-25.838287,0.000901,-19.361741,0.001147,57.185498,-0.001125,63.559138,-0.002604
0.02556,-25.837833,0.000943,-19.361593,0.001228,57.18607,-0.001092,63.55883,-0.002815
0.026334,-25.837347,0.000983,-19.36146,0.001309,57.186632,-0.001036,63.558521,-0.003026
0.027109,-25.836834,0.001023,-19.361346,0.001388,57.187179,-0.000954,63.558208,-0.003235
0.027883,-25.836299,0.001063,-19.361255,0.001466,57.187708,-0.000845,63.557893,-0.00344
0.028658,-25.835747,0.001103,-19.361191,0.001542,57.188216,-0.000708,63.557577,-0.00364
0.029432,-25.835181,0.001147,-19.361155,0.001615,57.188699,-0.000543,63.557259,-0.003833
0.030207,-25.834607,0.001194,-19.361149,0.001685,57.189158,-0.00035,63.556942,-0.004017
0.030982,-25.83403,0.001247,-19.361175,0.001752,57.189591,-0.000128,63.556628,-0.004192
0.031756,-25.833456,0.001306,-19.361232,0.001816,57.19,0.00012,63.556321,-0.004357
0.032531,-25.832888,0.001374,-19.361319,0.001875,57.190385,0.000395,63.556023,-0.004509
0.033305,-25.832331,0.001452,-19.361436,0.001929,57.190748,0.000693,63.555739,-0.00465
0.03408,-25.83179,0.001541,-19.36158,0.001978,57.191093,0.001013,63.555475,-0.004778
0.034854,-25.83127,0.001643,-19.361748,0.002021,57.191422,0.001353,63.555235,-0.004892
0.035629,-25.830773,0.001758,-19.361938,0.002057,57.191739,0.001709,63.555024,-0.004992
0.036403,-25.830305,0.001888,-19.362146,0.002086,57.192048,0.002079,63.554848,-0.005079
0.037178,-25.829867,0.002033,-19.362368,0.002107,57.192351,0.002459,63.554711,-0.005151
0.037952,-25.829463,0.002193,-19.362602,0.002118,57.192654,0.002844,63.554618,-0.005209
0.038727,-25.829095,0.002368,-19.362842,0.002119,57.192959,0.003233,63.554572,-0.005254
0.039501,-25.828763,0.002558,-19.363087,0.002109,57.193271,0.00362,63.554576,-0.005284
0.040276,-25.828469,0.002761,-19.363332,0.002088,57.193592,0.004002,63.554632,-0.0053
0.041051,-25.828214,0.002977,-19.363574,0.002053,57.193926,0.004375,63.554739,-0.005303
0.041825,-25.827997,0.003205,-19.363812,0.002005,57.194275,0.004736,63.554898,-0.005292
0.0426,-25.827818,0.003441,-19.364041,0.001942,57.194642,0.005082,63.555106,-0.005267
0.043374,-25.827677,0.003685,-19.364261,0.001865,57.195028,0.005409,63.555361,-0.005227
0.044149,-25.827574,0.003933,-19.364468,0.001772,57.195435,0.005716,63.555658,-0.005174
0.044923,-25.827508,0.004184,-19.36466,0.001664,57.195864,0.005999,63.555993,-0.005105
0.045698,-25.82748,0.004433,-19.364836,0.00154,57.196314,0.006257,63.55636,-0.005021
0.046472,-25.827488,0.004678,-19.364993,0.001401,57.196786,0.006488,63.556754,-0.00492
0.047247,-25.827533,0.004915,-19.365131,0.001247,57.197278,0.006692,63.557169,-0.004802
0.048021,-25.827614,0.005142,-19.365247,0.001078,57.19779,0.006868,63.557597,-0.004667
0.048796,-25.827733,0.005355,-19.365341,0.000896,57.198319,0.007017,63.558034,-0.004513
0.04957,-25.827889,0.00555,-19.365411,0.000701,57.198863,0.007138,63.558472,-0.004338
0.050345,-25.828083,0.005725,-19.365457,0.000495,57.199419,0.007232,63.558906,-0.004144
0.05112,-25.828314,0.005876,-19.365476,0.000279,57.199982,0.007301,63.559331,-0.003927
0.051894,-25.828584,0.006001,-19.36547,5.5e-05,57.200548,0.007347,63.55974,-0.003688
0.052669,-25.828893,0.006096,-19.365435,-0.000175,57.201113,0.007371,63.56013,-0.003427
0.053443,-25.82924,0.00616,-19.365373,-0.000409,57.20167,0.007375,63.560495,-0.003142
0.054218,-25.829626,0.00619,-19.365283,-0.000646,57.202214,0.007362,63.560831,-0.002834
0.054992,-25.83005,0.006185,-19.365163,-0.000882,57.202738,0.007335,63.561134,-0.002502
0.055767,-25.830511,0.006142,-19.365013,-0.001115,57.203236,0.007295,63.561402,-0.002148
0.056541,-25.83101,0.006062,-19.364833,-0.001343,57.203703,0.007246,63.56163,-0.001772
0.057316,-25.831545,0.005942,-19.364623,-0.001564,57.204132,0.00719,63.561816,-0.001375
0.05809,-25.832114,0.005782,-19.364383,-0.001776,57.204518,0.007129,63.561959,-0.000959
0.058865,-25.832716,0.005583,-19.364112,-0.001975,57.204856,0.007066,63.562056,-0.000525
0.059639,-25.833349,0.005343,-19.363812,-0.00216,57.205142,0.007002,63.562108,-7.6e-05
0.060414,-25.834011,0.005064,-19.363482,-0.002328,57.205374,0.006939,63.562113,0.000385
0.061189,-25.8347,0.004747,-19.363125,-0.002478,57.205548,0.006878,63.562073,0.000856
0.061963,-25.835411,0.004392,-19.362741,-0.002607,57.205662,0.006819,63.561988,0.001333
0.062738,-25.836142,0.004001,-19.362333,-0.002714,57.205715,0.006764,63.561861,0.001813
0.063512,-25.836888,0.003574,-19.361904,-0.002798,57.205706,0.006712,63.561692,0.002292
0.064287,-25.837645,0.003114,-19.361457,-0.002857,57.205635,0.006663,63.561486,0.002767
0.065061,-25.838409,0.002623,-19.360995,-0.002889,57.205502,0.006615,63.561246,0.003233
0.065836,-25.839174,0.002103,-19.360522,-0.002894,57.205306,0.006568,63.560974,0.003686
0.06661,-25.839936,0.001555,-19.360041,-0.002872,57.205048,0.006519,63.560676,0.004122
0.067385,-25.840689,0.000983,-19.359557,-0.002822,57.20473,0.006467,63.560355,0.004538
0.068159,-25.84143,0.000389,-19.359073,-0.002743,57.204354,0.006408,63.560015,0.004929
0.068934,-25.842154,-0.000226,-19.358594,-0.002637,57.203921,0.006341,63.559662,0.005291
0.069708,-25.842857,-0.000857,-19.358121,-0.002502,57.203434,0.006262,63.5593,0.005622
0.070483,-25.843536,-0.001502,-19.357659,-0.002341,57.202897,0.006169,63.558934,0.005918
0.071258,-25.844188,-0.002158,-19.35721,-0.002153,57.202315,0.006057,63.558569,0.006176
0.072032,-25.84481,-0.002823,-19.356776,-0.001941,57.201694,0.005923,63.558208,0.006394
0.072807,-25.845399,-0.003493,-19.356359,-0.001704,57.201039,0.005765,63.557858,0.006571
0.073581,-25.845955,-0.004166,-19.355961,-0.001446,57.200359,0.00558,63.557523,0.006704
0.074356,-25.846474,-0.004837,-19.355583,-0.001167,57.199662,0.005364,63.557207,0.006793
0.07513,-25.846957,-0.005504,-19.355227,-0.00087,57.198956,0.005114,63.556915,0.006838
0.075905,-25.847403,-0.006164,-19.354893,-0.000558,57.19825,0.004829,63.556651,0.006838
0.076679,-25.847811,-0.006814,-19.354583,-0.000232,57.197551,0.004505,63.556418,0.006795
0.077454,-25.84818,-0.007451,-19.354297,0.000105,57.196867,0.004143,63.55622,0.006709
0.078228,-25.848513,-0.00807,-19.354035,0.000449,57.196205,0.00374,63.556058,0.006582
0.079003,-25.848809,-0.00867,-19.353797,0.000799,57.19557,0.003295,63.555936,0.006417
0.079777,-25.849069,-0.009247,-19.353584,0.001151,57.194966,0.002809,63.555852,0.006217
0.080552,-25.849296,-0.009798,-19.353395,0.001502,57.194396,0.002283,63.555808,0.005984
0.081327,-25.849492,-0.010321,-19.35323,0.00185,57.193859,0.001716,63.555803,0.005722
0.082101,-25.849657,-0.010812,-19.353089,0.00219,57.193357,0.001112,63.555834,0.005435
0.082876,-25.849795,-0.01127,-19.35297,0.002522,57.192888,0.000472,63.555901,0.005128
0.08365,-25.849908,-0.011691,-19.352874,0.002841,57.19245,-0.000201,63.555999,0.004805
0.084425,-25.849996,-0.012074,-19.3528,0.003145,57.19204,-0.000904,63.556125,0.00447
0.085199,-25.850064,-0.012417,-19.352748,0.003432,57.191656,-0.001632,63.556276,0.004128
0.085974,-25.850111,-0.012718,-19.352715,0.003699,57.191294,-0.00238,63.556447,0.003785
0.086748,-25.850141,-0.012975,-19.352702,0.003944,57.190952,-0.003145,63.556634,0.003445
0.087523,-25.850154,-0.013189,-19.352708,0.004165,57.190625,-0.003921,63.556834,0.003112
0.088297,-25.850151,-0.013357,-19.352731,0.00436,57.190311,-0.004703,63.557042,0.002791
0.089072,-25.850135,-0.013479,-19.35277,0.004528,57.190006,-0.005485,63.557255,0.002487
0.089846,-25.850105,-0.013555,-19.352823,0.004667,57.18971,-0.006262,63.557471,0.002203
0.090621,-25.850062,-0.013586,-19.352888,0.004778,57.189419,-0.007028,63.557685,0.001942
0.091396,-25.850007,-0.013571,-19.352964,0.004858,57.189132,-0.007778,63.557897,0.001709
0.09217,-25.84994,-0.013512,-19.353047,0.004908,57.18885,-0.008506,63.558104,0.001506
0.092945,-25.849861,-0.013409,-19.353136,0.004927,57.188573,-0.009208,63.558306,0.001334
0.093719,-25.849771,-0.013263,-19.353227,0.004916,57.188301,-0.009878,63.5585,0.001197
0.094494,-25.849669,-0.013078,-19.353317,0.004875,57.188037,-0.010514,63.558688,0.001094
0.095268,-25.849555,-0.012853,-19.353403,0.004804,57.187782,-0.011111,63.558867,0.001026
0.096043,-25.849429,-0.012592,-19.353481,0.004705,57.18754,-0.011666,63.559039,0.000994
0.096817,-25.849291,-0.012296,-19.353548,0.004578,57.187314,-0.012177,63.559204,0.000997
0.097592,-25.849139,-0.011968,-19.3536,0.004426,57.187107,-0.012641,63.559361,0.001034
0.098366,-25.848974,-0.01161,-19.353635,0.004248,57.186923,-0.013057,63.559511,0.001104
0.099141,-25.848796,-0.011225,-19.353647,0.004048,57.186765,-0.013425,63.559654,0.001204
0.099915,-25.848603,-0.010816,-19.353636,0.003826,57.186638,-0.013743,63.559791,0.001333
0.10069,-25.848395,-0.010385,-19.353598,0.003586,57.186545,-0.014012,63.559923,0.001487
0.101465,-25.848173,-0.009935,-19.35353,0.003328,57.18649,-0.014232,63.56005,0.001665
0.102239,-25.847935,-0.009469,-19.35343,0.003056,57.186477,-0.014405,63.560172,0.001862
0.103014,-25.847682,-0.008989,-19.353297,0.002773,57.186509,-0.014532,63.56029,0.002075
0.103788,-25.847413,-0.008498,-19.353129,0.002479,57.186591,-0.014614,63.560405,0.002302
0.104563,-25.847129,-0.007997,-19.352924,0.002179,57.186727,-0.014653,63.560516,0.002538
0.105337,-25.84683,-0.00749,-19.352682,0.001875,57.186919,-0.014651,63.560624,0.00278
0.106112,-25.846517,-0.006978,-19.352402,0.001569,57.187172,-0.014611,63.56073,0.003025
0.106886,-25.846189,-0.006463,-19.352083,0.001264,57.187489,-0.014534,63.560834,0.003269
0.107661,-25.845848,-0.005947,-19.351726,0.000964,57.187872,-0.014423,63.560935,0.00351
0.108435,-25.845494,-0.005431,-19.351332,0.00067,57.188325,-0.01428,63.561034,0.003744
0.10921,-25.845128,-0.004917,-19.350902,0.000386,57.188849,-0.014105,63.561132,0.003969
0.109984,-25.844751,-0.004406,-19.350436,0.000114,57.189444,-0.013902,63.561228,0.004183
0.110759,-25.844364,-0.003898,-19.349938,-0.000143,57.19011,-0.013672,63.561322,0.004382
0.111534,-25.843967,-0.003395,-19.34941,-0.000383,57.190845,-0.013415,63.561414,0.004567
0.112308,-25.843562,-0.002897,-19.348856,-0.000604,57.191647,-0.013133,63.561504,0.004734
0.113083,-25.84315,-0.002404,-19.34828,-0.000803,57.192509,-0.012826,63.561592,0.004883
0.113857,-25.842732,-0.001918,-19.347687,-0.000979,57.193426,-0.012495,63.561677,0.005013
0.114632,-25.84231,-0.001437,-19.347083,-0.001129,57.194389,-0.01214,63.561759,0.005123
0.115406,-25.841884,-0.000963,-19.346472,-0.001252,57.19539,-0.011761,63.561838,0.005213
0.116181,-25.841456,-0.000495,-19.345861,-0.001347,57.19642,-0.011357,63.561913,0.005284
0.116955,-25.841027,-3.3e-05,-19.345256,-0.001412,57.197468,-0.010927,63.561983,0.005335
0.11773,-25.840598,0.000422,-19.344663,-0.001447,57.198524,-0.010472,63.562047,0.005367
0.118504,-25.84017,0.000872,-19.344085,-0.001452,57.19958,-0.00999,63.562104,0.005381
0.119279,-25.839745,0.001315,-19.343529,-0.001425,57.200627,-0.009481,63.562154,0.005378
0.120054,-25.839323,0.001753,-19.342998,-0.001368,57.201656,-0.008943,63.562195,0.005357
0.120828,-25.838904,0.002184,-19.342496,-0.001281,57.202661,-0.008377,63.562226,0.005322
0.121603,-25.83849,0.00261,-19.342025,-0.001165,57.203636,-0.007782,63.562245,0.005273
0.122377,-25.838081,0.00303,-19.341589,-0.001021,57.204577,-0.007157,63.562251,0.00521
0.123152,-25.837677,0.003444,-19.341188,-0.00085,57.205479,-0.006504,63.562242,0.005137
0.123926,-25.83728,0.003852,-19.340825,-0.000655,57.206339,-0.005823,63.562217,0.005053
0.124701,-25.836889,0.004253,-19.3405,-0.000438,57.207156,-0.005114,63.562175,0.004959
0.125475,-25.836506,0.004647,-19.340214,-0.000202,57.207927,-0.00438,63.562114,0.004859
0.12625,-25.836132,0.005035,-19.339967,5.1e-05,57.208652,-0.003622,63.562033,0.004751
0.127024,-25.835768,0.005414,-19.339759,0.000317,57.209329,-0.002842,63.561932,0.004637
0.127799,-25.835415,0.005786,-19.339589,0.000593,57.209961,-0.002045,63.561809,0.004519
0.128573,-25.835076,0.006148,-19.339456,0.000876,57.210546,-0.001232,63.561666,0.004396
0.129348,-25.834752,0.006501,-19.33936,0.001161,57.211087,-0.000409,63.561502,0.00427
0.130123,-25.834446,0.006844,-19.339299,0.001445,57.211584,0.000422,63.561319,0.00414
0.130897,-25.83416,0.007176,-19.33927,0.001724,57.21204,0.001254,63.561119,0.004007
0.131672,-25.833899,0.007496,-19.339271,0.001993,57.212457,0.002084,63.560904,0.003872
0.132446,-25.833664,0.007803,-19.339301,0.00225,57.212836,0.002906,63.560678,0.003733
0.133221,-25.833461,0.008097,-19.339355,0.002491,57.213179,0.003716,63.560445,0.003592
0.133995,-25.833293,0.008377,-19.339432,0.002711,57.213489,0.004507,63.56021,0.003447
0.13477,-25.833165,0.008642,-19.339528,0.002908,57.213768,0.005274,63.559978,0.003299
0.135544,-25.833079,0.00889,-19.33964,0.003079,57.214019,0.006013,63.559754,0.003146
0.136319,-25.83304,0.009121,-19.339766,0.00322,57.214242,0.006717,63.559545,0.002988
0.137093,-25.833052,0.009335,-19.339901,0.00333,57.214439,0.007384,63.559355,0.002826
0.137868,-25.833118,0.009529,-19.340044,0.003406,57.214613,0.008008,63.559188,0.002658
0.138642,-25.833239,0.009704,-19.340191,0.003446,57.214765,0.008584,63.55905,0.002483
0.139417,-25.833417,0.009857,-19.34034,0.00345,57.214896,0.009111,63.558943,0.002302
0.140192,-25.833653,0.009989,-19.340489,0.003417,57.215007,0.009584,63.558869,0.002115
0.140966,-25.833946,0.010098,-19.340635,0.003345,57.215099,0.01,63.558829,0.001921
0.141741,-25.834295,0.010183,-19.340778,0.003236,57.215174,0.010359,63.558824,0.00172
0.142515,-25.834696,0.010243,-19.340916,0.003089,57.21523,0.010658,63.558852,0.001512
0.14329,-25.835146,0.010277,-19.341047,0.002906,57.21527,0.010896,63.558912,0.001299
0.144064,-25.83564,0.010283,-19.341171,0.002687,57.215292,0.011074,63.559,0.00108
0.144839,-25.83617,0.01026,-19.341286,0.002436,57.215298,0.011192,63.559113,0.000857
0.145613,-25.836732,0.010208,-19.341394,0.002153,57.215287,0.01125,63.559248,0.000632
0.146388,-25.837317,0.010126,-19.341493,0.001841,57.215258,0.011249,63.5594,0.000405
0.147162,-25.837918,0.010011,-19.341585,0.001503,57.215213,0.011193,63.559565,0.000177
0.147937,-25.838528,0.009863,-19.341669,0.001141,57.21515,0.011082,63.559741,-4.8e-05
0.148711,-25.839141,0.009682,-19.341746,0.00076,57.215069,0.010919,63.559922,-0.00027
0.149486,-25.839749,0.009467,-19.341817,0.000362,57.214971,0.010708,63.560107,-0.000486
0.150261,-25.840346,0.009216,-19.341885,-5e-05,57.214856,0.010452,63.560292,-0.000694
0.151035,-25.840928,0.008931,-19.34195,-0.000472,57.214724,0.010154,63.560475,-0.000892
0.15181,-25.841489,0.008611,-19.342014,-0.0009,57.214576,0.009818,63.560654,-0.001079
0.152584,-25.842025,0.008256,-19.342079,-0.001331,57.214412,0.009447,63.560829,-0.001252
0.153359,-25.842533,0.007867,-19.342148,-0.001761,57.214234,0.009046,63.560998,-0.00141
0.154133,-25.84301,0.007445,-19.342222,-0.002189,57.214044,0.008617,63.561161,-0.00155
0.154908,-25.843452,0.006992,-19.342305,-0.002609,57.213841,0.008166,63.561317,-0.001673
0.155682,-25.843859,0.006509,-19.342397,-0.00302,57.213629,0.007695,63.561468,-0.001776
0.156457,-25.844229,0.005998,-19.3425,-0.00342,57.213407,0.007207,63.561612,-0.001859
0.157231,-25.84456,0.005462,-19.342617,-0.003804,57.213178,0.006707,63.56175,-0.001922
0.158006,-25.844854,0.004904,-19.342749,-0.004173,57.212943,0.006197,63.561883,-0.001963
0.15878,-25.845109,0.004328,-19.342896,-0.004524,57.212702,0.005681,63.56201,-0.001985
0.159555,-25.845328,0.003736,-19.343058,-0.004855,57.212456,0.00516,63.562133,-0.001985
0.16033,-25.84551,0.003133,-19.343235,-0.005166,57.212204,0.004638,63.56225,-0.001967
0.161104,-25.845657,0.002523,-19.343426,-0.005456,57.211945,0.004116,63.562364,-0.00193
0.161879,-25.845772,0.00191,-19.343627,-0.005724,57.21168,0.003597,63.562472,-0.001875
0.162653,-25.845857,0.001299,-19.343838,-0.005971,57.211407,0.003082,63.562576,-0.001805
0.163428,-25.845914,0.000694,-19.344053,-0.006197,57.211124,0.002572,63.562675,-0.00172
0.164202,-25.845945,9.9e-05,-19.344268,-0.006403,57.210831,0.00207,63.562768,-0.001624
0.164977,-25.845953,-0.00048,-19.344479,-0.006589,57.210525,0.001576,63.562855,-0.001516
0.165751,-25.84594,-0.00104,-19.344681,-0.006757,57.210206,0.001091,63.562936,-0.001401
0.166526,-25.845909,-0.001576,-19.344868,-0.006907,57.209872,0.000616,63.56301,-0.001279
0.1673,-25.845862,-0.002084,-19.345035,-0.007042,57.209522,0.00015,63.563076,-0.001152
0.168075,-25.8458,-0.002562,-19.345178,-0.007163,57.209157,-0.000304,63.563133,-0.001024
0.168849,-25.845725,-0.003004,-19.345292,-0.007271,57.208775,-0.000748,63.563181,-0.000895
0.169624,-25.845639,-0.00341,-19.345374,-0.007367,57.208379,-0.001182,63.563219,-0.000768
0.170399,-25.845543,-0.003775,-19.345421,-0.007455,57.207969,-0.001604,63.563246,-0.000645
0.171173,-25.845437,-0.004098,-19.345431,-0.007534,57.207549,-0.002016,63.563262,-0.000527
0.171948,-25.845323,-0.004377,-19.345403,-0.007606,57.207122,-0.002418,63.563267,-0.000416
0.172722,-25.8452,-0.004611,-19.345337,-0.007672,57.206694,-0.00281,63.563259,-0.000313
0.173497,-25.845069,-0.004801,-19.345233,-0.007734,57.206268,-0.003193,63.563238,-0.00022
0.174271,-25.84493,-0.004944,-19.345093,-0.00779,57.205853,-0.003566,63.563203,-0.000137
0.175046,-25.844783,-0.005043,-19.344917,-0.007843,57.205454,-0.003931,63.563155,-6.6e-05
0.17582,-25.844627,-0.005097,-19.344708,-0.007891,57.20508,-0.004288,63.563092,-8e-06
0.176595,-25.844463,-0.005107,-19.344469,-0.007935,57.204738,-0.004637,63.563014,3.8e-05
