Time (s),WAA_angle,WAA_disp,WFE_angle,WFE_disp,EPS_angle,EPS_disp,EFE_angle,EFE_disp
0.0,28.090501,0.0,-25.206258,0.0,-46.677668,0.0,-52.834498,0.0
0.000666,28.090601,0.0,-25.206556,-0.0,-46.677552,0.0,-52.834755,-0.0
0.001331,28.090711,0.0,-25.206866,-0.0,-46.677425,0.0,-52.835031,-0.0
0.001997,28.090831,0.0,-25.207184,-0.0,-46.677287,0.0,-52.835326,-0.0
0.002662,28.090963,0.0,-25.207507,-0.0,-46.677138,0.0,-52.835638,-0.0
0.003328,28.091105,0.0,-25.207833,-1e-06,-46.676977,0.0,-52.835965,-1e-06
0.003993,28.091258,1e-06,-25.208156,-3e-06,-46.676806,1e-06,-52.836305,-2e-06
0.004659,28.091422,2e-06,-25.208473,-5e-06,-46.676625,2e-06,-52.836656,-5e-06
0.005324,28.091597,3e-06,-25.20878,-9e-06,-46.676435,4e-06,-52.837014,-9e-06
0.00599,28.091783,6e-06,-25.209073,-1.6e-05,-46.676237,7e-06,-52.837377,-1.5e-05
0.006655,28.091979,9e-06,-25.209349,-2.6e-05,-46.676031,1.1e-05,-52.837742,-2.3e-05
0.007321,28.092185,1.5e-05,-25.209605,-3.9e-05,-46.675818,1.7e-05,-52.838105,-3.6e-05
0.007986,28.092401,2.1e-05,-25.209837,-5.6e-05,-46.675599,2.5e-05,-52.838464,-5.2e-05
0.008652,28.092626,3.1e-05,-25.210044,-7.9e-05,-46.675376,3.5e-05,-52.838815,-7.4e-05
0.009317,28.09286,4.3e-05,-25.210223,-0.000108,-46.675148,4.9e-05,-52.839156,-0.000102
0.009983,28.0931,5.8e-05,-25.210374,-0.000144,-46.674918,6.6e-05,-52.839484,-0.000137
0.010649,28.093348,7.6e-05,-25.210495,-0.000187,-46.674685,8.6e-05,-52.839796,-0.00018
0.011314,28.093601,9.9e-05,-25.210587,-0.000237,-46.67445,0.000112,-52.84009,-0.000231
0.01198,28.093858,0.000126,-25.210649,-0.000296,-46.674215,0.000142,-52.840365,-0.000291
0.012645,28.094117,0.000159,-25.210683,-0.000363,-46.673979,0.000178,-52.840619,-0.000361
0.013311,28.094378,0.000196,-25.21069,-0.000438,-46.673743,0.000219,-52.840849,-0.000442
0.013976,28.094637,0.000239,-25.210671,-0.000522,-46.673508,0.000266,-52.841055,-0.000533
0.014642,28.094895,0.000289,-25.210628,-0.000613,-46.673274,0.000319,-52.841236,-0.000634
0.015307,28.095148,0.000345,-25.210563,-0.000712,-46.673042,0.000379,-52.841389,-0.000746
0.015973,28.095395,0.000407,-25.210479,-0.000818,-46.672811,0.000446,-52.841515,-0.000869
0.016638,28.095634,0.000476,-25.210379,-0.00093,-46.672582,0.000519,-52.841613,-0.001002
0.017304,28.095864,0.000552,-25.210264,-0.001046,-46.672356,0.000599,-52.841682,-0.001145
0.017969,28.096083,0.000635,-25.210137,-0.001166,-46.672132,0.000686,-52.841722,-0.001296
0.018635,28.09629,0.000725,-25.210002,-0.001288,-46.67191,0.000779,-52.841734,-0.001455
0.0193,28.096484,0.000822,-25.209861,-0.001411,-46.671691,0.000879,-52.841717,-0.001621
0.019966,28.096665,0.000925,-25.209717,-0.001533,-46.671475,0.000984,-52.841673,-0.001792
0.020632,28.096831,0.001035,-25.209571,-0.001653,-46.67126,0.001095,-52.841602,-0.001967
0.021297,28.096982,0.00115,-25.209427,-0.001768,-46.671048,0.001211,-52.841506,-0.002144
0.021963,28.097119,0.001271,-25.209287,-0.001878,-46.670838,0.001332,-52.841386,-0.002322
0.022628,28.09724,0.001396,-25.209152,-0.001981,-46.670629,0.001457,-52.841244,-0.002499
0.023294,28.097346,0.001526,-25.209026,-0.002074,-46.670422,0.001585,-52.841082,-0.002672
0.023959,28.097438,0.001658,-25.208911,-0.002157,-46.670216,0.001716,-52.840903,-0.002841
0.024625,28.097515,0.001794,-25.208807,-0.002228,-46.67001,0.001849,-52.840709,-0.003002
0.02529,28.097578,0.00193,-25.208716,-0.002286,-46.669805,0.001983,-52.840503,-0.003155
0.025956,28.097627,0.002068,-25.208641,-0.00233,-46.669599,0.002118,-52.840287,-0.003296
0.026621,28.097663,0.002205,-25.208581,-0.002358,-46.669393,0.002252,-52.840065,-0.003425
0.027287,28.097686,0.00234,-25.208538,-0.002371,-46.669185,0.002386,-52.83984,-0.003539
0.027952,28.097696,0.002473,-25.208512,-0.002367,-46.668975,0.002518,-52.839613,-0.003636
0.028618,28.097695,0.002602,-25.208504,-0.002347,-46.668763,0.002647,-52.839388,-0.003716
0.029283,28.097683,0.002727,-25.208513,-0.00231,-46.668547,0.002774,-52.839167,-0.003776
0.029949,28.09766,0.002845,-25.208539,-0.002256,-46.668327,0.002897,-52.838951,-0.003815
0.030615,28.097628,0.002956,-25.20858,-0.002187,-46.668102,0.003015,-52.838744,-0.003832
0.03128,28.097587,0.00306,-25.208637,-0.002101,-46.667872,0.003128,-52.838546,-0.003827
0.031946,28.097538,0.003154,-25.208706,-0.002001,-46.667635,0.003237,-52.838359,-0.003799
0.032611,28.097481,0.003238,-25.208786,-0.001887,-46.667392,0.003339,-52.838184,-0.003747
0.033277,28.097419,0.003311,-25.208875,-0.001761,-46.667141,0.003435,-52.838023,-0.003671
0.033942,28.097352,0.003373,-25.208969,-0.001624,-46.666881,0.003524,-52.837876,-0.003572
0.034608,28.097281,0.003422,-25.209067,-0.001477,-46.666613,0.003607,-52.837744,-0.003449
0.035273,28.097207,0.003458,-25.209165,-0.001323,-46.666334,0.003683,-52.837628,-0.003304
0.035939,28.097131,0.00348,-25.209261,-0.001162,-46.666046,0.003752,-52.837528,-0.003136
0.036604,28.097055,0.003488,-25.20935,-0.000997,-46.665747,0.003813,-52.837444,-0.002948
0.03727,28.096979,0.003481,-25.209431,-0.000829,-46.665438,0.003868,-52.837377,-0.002741
0.037935,28.096905,0.00346,-25.209501,-0.000661,-46.665118,0.003917,-52.837326,-0.002515
0.038601,28.096835,0.003424,-25.209558,-0.000494,-46.664787,0.003958,-52.837293,-0.002273
0.039266,28.096768,0.003374,-25.209599,-0.000329,-46.664445,0.003994,-52.837275,-0.002016
0.039932,28.096706,0.003309,-25.209623,-0.00017,-46.664094,0.004024,-52.837274,-0.001748
0.040598,28.09665,0.00323,-25.209628,-1.6e-05,-46.663733,0.004048,-52.837288,-0.001468
0.041263,28.096601,0.003137,-25.209615,0.00013,-46.663365,0.004067,-52.837316,-0.001181
0.041929,28.09656,0.00303,-25.209583,0.000267,-46.66299,0.004082,-52.837359,-0.000888
0.042594,28.096527,0.002911,-25.209531,0.000395,-46.662609,0.004093,-52.837415,-0.000591
0.04326,28.096504,0.00278,-25.20946,0.000511,-46.662226,0.004101,-52.837483,-0.000293
0.043925,28.096491,0.002637,-25.209371,0.000616,-46.661841,0.004106,-52.837561,4e-06
0.044591,28.096489,0.002485,-25.209265,0.000709,-46.661457,0.004109,-52.837649,0.000297
0.045256,28.096498,0.002322,-25.209144,0.000791,-46.661076,0.004111,-52.837746,0.000585
0.045922,28.09652,0.002152,-25.209009,0.000859,-46.660701,0.004112,-52.837851,0.000865
0.046587,28.096553,0.001974,-25.208861,0.000916,-46.660334,0.004113,-52.837961,0.001134
0.047253,28.096599,0.001791,-25.208703,0.000962,-46.659978,0.004114,-52.838077,0.001392
0.047918,28.096657,0.001602,-25.208537,0.000997,-46.659634,0.004117,-52.838198,0.001636
0.048584,28.096729,0.00141,-25.208365,0.001021,-46.659306,0.004121,-52.838323,0.001865
0.049249,28.096812,0.001216,-25.208188,0.001037,-46.658994,0.004126,-52.838451,0.002077
0.049915,28.096908,0.001021,-25.20801,0.001044,-46.658702,0.004134,-52.838583,0.002271
0.050581,28.097015,0.000826,-25.207832,0.001044,-46.65843,0.004145,-52.838718,0.002446
0.051246,28.097133,0.000633,-25.207656,0.001039,-46.658181,0.004158,-52.838856,0.002601
0.051912,28.097261,0.000442,-25.207484,0.00103,-46.657956,0.004174,-52.838998,0.002735
0.052577,28.097396,0.000256,-25.207318,0.001019,-46.657756,0.004192,-52.839145,0.002848
0.053243,28.097539,7.4e-05,-25.207161,0.001005,-46.657583,0.004213,-52.839296,0.00294
0.053908,28.097686,-0.000101,-25.207012,0.000992,-46.657438,0.004236,-52.839453,0.003011
0.054574,28.097836,-0.000269,-25.206875,0.000981,-46.657321,0.004261,-52.839616,0.00306
0.055239,28.097987,-0.000428,-25.206751,0.000972,-46.657235,0.004288,-52.839787,0.003088
0.055905,28.098137,-0.000578,-25.20664,0.000967,-46.657179,0.004315,-52.839965,0.003096
0.05657,28.098284,-0.000718,-25.206544,0.000967,-46.657155,0.004342,-52.840151,0.003084
0.057236,28.098425,-0.000846,-25.206463,0.000974,-46.657164,0.004368,-52.840347,0.003053
0.057901,28.098559,-0.000964,-25.206398,0.000986,-46.657206,0.004392,-52.840553,0.003005
0.058567,28.098684,-0.001069,-25.206348,0.001007,-46.657282,0.004413,-52.840769,0.002939
0.059232,28.098799,-0.001162,-25.206314,0.001035,-46.657392,0.00443,-52.840995,0.002857
0.059898,28.098902,-0.001243,-25.206293,0.001071,-46.657536,0.004442,-52.84123,0.002761
0.060564,28.098991,-0.00131,-25.206287,0.001116,-46.657715,0.004447,-52.841476,0.002651
0.061229,28.099068,-0.001365,-25.206291,0.001168,-46.657928,0.004445,-52.84173,0.002529
0.061895,28.099129,-0.001407,-25.206306,0.001229,-46.658175,0.004433,-52.841992,0.002397
0.06256,28.099176,-0.001436,-25.206328,0.001296,-46.658455,0.004411,-52.84226,0.002254
0.063226,28.099208,-0.001453,-25.206356,0.001371,-46.658766,0.004377,-52.842532,0.002104
0.063891,28.099224,-0.001459,-25.206385,0.001451,-46.659107,0.00433,-52.842806,0.001946
0.064557,28.099225,-0.001453,-25.206414,0.001537,-46.659476,0.004268,-52.843079,0.001782
0.065222,28.099212,-0.001438,-25.206439,0.001626,-46.659871,0.00419,-52.84335,0.001614
0.065888,28.099184,-0.001413,-25.206457,0.001719,-46.660291,0.004095,-52.843616,0.001442
0.066553,28.099142,-0.001379,-25.206464,0.001813,-46.660732,0.003982,-52.843874,0.001267
0.067219,28.099087,-0.001339,-25.206458,0.001908,-46.661192,0.003849,-52.844123,0.00109
0.067884,28.09902,-0.001292,-25.206435,0.002003,-46.661668,0.003696,-52.84436,0.000912
0.06855,28.098943,-0.00124,-25.206393,0.002095,-46.662157,0.003521,-52.844585,0.000734
0.069215,28.098857,-0.001185,-25.206329,0.002184,-46.662657,0.003324,-52.844797,0.000557
0.069881,28.098762,-0.001127,-25.206242,0.00227,-46.663164,0.003105,-52.844995,0.00038
0.070547,28.098663,-0.001068,-25.206129,0.00235,-46.663675,0.002863,-52.845179,0.000206
0.071212,28.09856,-0.001009,-25.205989,0.002423,-46.664188,0.002597,-52.845351,3.3e-05
0.071878,28.098456,-0.000951,-25.205821,0.00249,-46.664699,0.002307,-52.845511,-0.000136
0.072543,28.098355,-0.000897,-25.205626,0.002549,-46.665205,0.001994,-52.845662,-0.000302
0.073209,28.098259,-0.000846,-25.205403,0.002601,-46.665703,0.001657,-52.845805,-0.000464
0.073874,28.098171,-0.000801,-25.205152,0.002643,-46.666191,0.001298,-52.845944,-0.000622
0.07454,28.098096,-0.000762,-25.204875,0.002677,-46.666665,0.000916,-52.846079,-0.000775
0.075205,28.098036,-0.000731,-25.204573,0.002703,-46.667124,0.000513,-52.846216,-0.000923
0.075871,28.097995,-0.000707,-25.204247,0.00272,-46.667564,8.9e-05,-52.846355,-0.001066
0.076536,28.097976,-0.000692,-25.203899,0.00273,-46.667984,-0.000355,-52.8465,-0.001203
0.077202,28.097983,-0.000687,-25.203531,0.002733,-46.668383,-0.000816,-52.846655,-0.001333
0.077867,28.098017,-0.000692,-25.203146,0.002729,-46.668759,-0.001294,-52.846821,-0.001457
0.078533,28.098081,-0.000707,-25.202746,0.00272,-46.669111,-0.001786,-52.847001,-0.001574
0.079198,28.098177,-0.000733,-25.202333,0.002706,-46.66944,-0.002292,-52.847198,-0.001683
0.079864,28.098306,-0.000769,-25.20191,0.002689,-46.669747,-0.002808,-52.847412,-0.001785
0.08053,28.098467,-0.000815,-25.20148,0.002671,-46.670031,-0.003332,-52.847646,-0.00188
0.081195,28.098661,-0.000871,-25.201045,0.002653,-46.670294,-0.003864,-52.847901,-0.001966
0.081861,28.098886,-0.000935,-25.200608,0.002635,-46.670539,-0.004399,-52.848176,-0.002045
0.082526,28.09914,-0.001008,-25.200171,0.00262,-46.670766,-0.004935,-52.848471,-0.002115
0.083192,28.09942,-0.001088,-25.199738,0.002609,-46.670979,-0.005471,-52.848787,-0.002178
0.083857,28.099723,-0.001174,-25.199312,0.002604,-46.67118,-0.006002,-52.849121,-0.002233
0.084523,28.100044,-0.001265,-25.198894,0.002605,-46.671371,-0.006528,-52.849472,-0.00228
0.085188,28.100381,-0.001359,-25.198488,0.002614,-46.671555,-0.007045,-52.849837,-0.002321
0.085854,28.100727,-0.001454,-25.198097,0.002632,-46.671736,-0.00755,-52.850216,-0.002355
0.086519,28.101079,-0.00155,-25.197722,0.002661,-46.671915,-0.008042,-52.850604,-0.002383
0.087185,28.101431,-0.001644,-25.197367,0.002701,-46.672096,-0.008517,-52.850998,-0.002405
0.08785,28.101779,-0.001735,-25.197033,0.002752,-46.67228,-0.008974,-52.851398,-0.002423
0.088516,28.10212,-0.00182,-25.196723,0.002816,-46.672471,-0.00941,-52.851798,-0.002436
0.089181,28.102448,-0.001898,-25.196438,0.002892,-46.672671,-0.009824,-52.852197,-0.002447
0.089847,28.102761,-0.001967,-25.19618,0.002981,-46.672882,-0.010214,-52.852592,-0.002455
0.090513,28.103056,-0.002026,-25.195951,0.003082,-46.673105,-0.010578,-52.852979,-0.002462
0.091178,28.103329,-0.002073,-25.195751,0.003195,-46.673343,-0.010915,-52.853358,-0.002468
0.091844,28.103579,-0.002106,-25.195582,0.003319,-46.673595,-0.011223,-52.853725,-0.002475
0.092509,28.103805,-0.002125,-25.195446,0.003454,-46.673862,-0.011503,-52.854079,-0.002483
0.093175,28.104004,-0.002129,-25.195342,0.003598,-46.674146,-0.011753,-52.854417,-0.002493
0.09384,28.104176,-0.002116,-25.195273,0.003751,-46.674445,-0.011974,-52.854739,-0.002506
0.094506,28.10432,-0.002087,-25.195239,0.00391,-46.674759,-0.012164,-52.855042,-0.002522
0.095171,28.104435,-0.00204,-25.195241,0.004074,-46.675087,-0.012325,-52.855326,-0.002543
0.095837,28.104522,-0.001977,-25.195279,0.004242,-46.675429,-0.012458,-52.855589,-0.002568
0.096502,28.104581,-0.001897,-25.195355,0.004411,-46.675782,-0.012562,-52.855831,-0.002598
0.097168,28.104611,-0.001801,-25.195469,0.00458,-46.676145,-0.012638,-52.856052,-0.002633
0.097833,28.104615,-0.001689,-25.195622,0.004745,-46.676518,-0.012689,-52.856251,-0.002673
0.098499,28.104593,-0.001563,-25.195815,0.004906,-46.676898,-0.012716,-52.856429,-0.002718
0.099164,28.104546,-0.001425,-25.196047,0.00506,-46.677283,-0.012719,-52.856587,-0.002767
0.09983,28.104476,-0.001275,-25.196318,0.005203,-46.677673,-0.012702,-52.856725,-0.002821
0.100496,28.104386,-0.001115,-25.196629,0.005336,-46.678065,-0.012665,-52.856845,-0.002879
0.101161,28.104277,-0.000948,-25.196978,0.005454,-46.67846,-0.012611,-52.856949,-0.00294
0.101827,28.104152,-0.000776,-25.197364,0.005555,-46.678855,-0.012542,-52.857037,-0.003003
0.102492,28.104014,-0.0006,-25.197786,0.005638,-46.679249,-0.01246,-52.857113,-0.003067
0.103158,28.103867,-0.000423,-25.198242,0.005701,-46.679642,-0.012367,-52.857178,-0.003131
0.103823,28.103714,-0.000247,-25.198729,0.005741,-46.680033,-0.012264,-52.857235,-0.003195
0.104489,28.103559,-7.5e-05,-25.199245,0.005756,-46.680421,-0.012155,-52.857287,-0.003256
0.105154,28.103406,9e-05,-25.199785,0.005746,-46.680805,-0.012041,-52.857336,-0.003314
0.10582,28.103258,0.000248,-25.200348,0.005708,-46.681185,-0.011924,-52.857384,-0.003368
0.106485,28.103119,0.000395,-25.200929,0.00564,-46.681561,-0.011806,-52.857434,-0.003415
0.107151,28.102993,0.000529,-25.201525,0.005543,-46.681931,-0.011688,-52.85749,-0.003455
0.107816,28.102883,0.000649,-25.202131,0.005415,-46.682297,-0.011571,-52.857552,-0.003486
0.108482,28.102791,0.000752,-25.202745,0.005254,-46.682656,-0.011457,-52.857624,-0.003508
0.109147,28.102718,0.000838,-25.203363,0.005061,-46.683011,-0.011348,-52.857708,-0.003519
0.109813,28.102668,0.000904,-25.203981,0.004836,-46.683359,-0.011243,-52.857805,-0.003519
0.110479,28.102639,0.00095,-25.204598,0.004577,-46.683701,-0.011144,-52.857918,-0.003505
0.111144,28.102633,0.000975,-25.205209,0.004286,-46.684037,-0.011051,-52.858048,-0.003479
0.11181,28.102649,0.000979,-25.205813,0.003963,-46.684367,-0.010964,-52.858195,-0.003438
0.112475,28.102686,0.000962,-25.206407,0.003609,-46.684691,-0.010884,-52.858361,-0.003384
0.113141,28.102742,0.000923,-25.206989,0.003223,-46.685008,-0.01081,-52.858547,-0.003315
0.113806,28.102816,0.000863,-25.207558,0.002809,-46.68532,-0.010742,-52.858751,-0.003231
0.114472,28.102903,0.000783,-25.208111,0.002366,-46.685625,-0.01068,-52.858975,-0.003134
0.115137,28.103003,0.000684,-25.208649,0.001898,-46.685924,-0.010624,-52.859218,-0.003022
0.115803,28.103112,0.000567,-25.20917,0.001404,-46.686218,-0.010572,-52.859479,-0.002897
0.116468,28.103226,0.000434,-25.209673,0.000889,-46.686505,-0.010525,-52.859758,-0.00276
0.117134,28.103343,0.000286,-25.210158,0.000353,-46.686788,-0.01048,-52.860053,-0.002611
0.117799,28.103459,0.000125,-25.210624,-0.0002,-46.687066,-0.010438,-52.860364,-0.002451
0.118465,28.103572,-4.6e-05,-25.211073,-0.000769,-46.687339,-0.010397,-52.860688,-0.002283
0.11913,28.103678,-0.000226,-25.211504,-0.00135,-46.687608,-0.010355,-52.861025,-0.002106
0.119796,28.103776,-0.000412,-25.211918,-0.00194,-46.687873,-0.010313,-52.861373,-0.001923
0.120462,28.103863,-0.000602,-25.212316,-0.002537,-46.688136,-0.010269,-52.861729,-0.001736
0.121127,28.103938,-0.000793,-25.212699,-0.003137,-46.688396,-0.010222,-52.862093,-0.001545
0.121793,28.103998,-0.000984,-25.213068,-0.003739,-46.688655,-0.010171,-52.862463,-0.001353
0.122458,28.104042,-0.001171,-25.213425,-0.004338,-46.688913,-0.010115,-52.862836,-0.001162
0.123124,28.10407,-0.001354,-25.213772,-0.004931,-46.689171,-0.010053,-52.86321,-0.000973
0.123789,28.10408,-0.00153,-25.21411,-0.005517,-46.68943,-0.009983,-52.863583,-0.000787
0.124455,28.104071,-0.001697,-25.214442,-0.006091,-46.689691,-0.009907,-52.863953,-0.000607
0.12512,28.104043,-0.001855,-25.214767,-0.006651,-46.689953,-0.009821,-52.864318,-0.000434
0.125786,28.103996,-0.002,-25.21509,-0.007195,-46.690219,-0.009727,-52.864675,-0.00027
0.126451,28.103928,-0.002133,-25.21541,-0.007721,-46.690487,-0.009623,-52.865023,-0.000115
0.127117,28.103841,-0.002253,-25.21573,-0.008225,-46.690759,-0.009509,-52.865359,2.8e-05
0.127782,28.103733,-0.002359,-25.216052,-0.008705,-46.691035,-0.009385,-52.865682,0.000159
0.128448,28.103606,-0.00245,-25.216375,-0.009161,-46.691314,-0.009251,-52.865989,0.000277
0.129113,28.103459,-0.002526,-25.216701,-0.009589,-46.691597,-0.009105,-52.86628,0.000381
0.129779,28.103293,-0.002589,-25.217032,-0.00999,-46.691882,-0.00895,-52.866551,0.000471
0.130445,28.103109,-0.002638,-25.217366,-0.010361,-46.692169,-0.008784,-52.866803,0.000547
0.13111,28.102907,-0.002673,-25.217705,-0.010701,-46.692458,-0.008608,-52.867034,0.000607
0.131776,28.102687,-0.002696,-25.218048,-0.011011,-46.692746,-0.008422,-52.867242,0.000653
0.132441,28.102452,-0.002708,-25.218395,-0.011289,-46.693032,-0.008227,-52.867427,0.000685
0.133107,28.102203,-0.002711,-25.218744,-0.011536,-46.693314,-0.008024,-52.867588,0.000703
0.133772,28.10194,-0.002704,-25.219096,-0.011752,-46.69359,-0.007812,-52.867724,0.000708
0.134438,28.101666,-0.002691,-25.219448,-0.011936,-46.693857,-0.007593,-52.867835,0.0007
0.135103,28.101382,-0.002672,-25.219798,-0.012091,-46.694114,-0.007367,-52.86792,0.000682
0.135769,28.10109,-0.002649,-25.220146,-0.012215,-46.694358,-0.007135,-52.867978,0.000654
0.136434,28.100792,-0.002625,-25.22049,-0.012311,-46.694586,-0.006897,-52.86801,0.000617
0.1371,28.10049,-0.0026,-25.220828,-0.01238,-46.694796,-0.006655,-52.868016,0.000574
0.137765,28.100186,-0.002577,-25.221157,-0.012422,-46.694986,-0.00641,-52.867996,0.000525
0.138431,28.099882,-0.002557,-25.221477,-0.01244,-46.695152,-0.006162,-52.86795,0.000473
0.139096,28.099579,-0.002542,-25.221785,-0.012435,-46.695294,-0.005911,-52.867878,0.000419
0.139762,28.09928,-0.002533,-25.22208,-0.012408,-46.695409,-0.005659,-52.867783,0.000365
0.140428,28.098986,-0.002532,-25.22236,-0.012362,-46.695496,-0.005405,-52.867665,0.000314
0.141093,28.0987,-0.00254,-25.222623,-0.012297,-46.695553,-0.005152,-52.867525,0.000267
0.141759,28.098422,-0.002559,-25.222869,-0.012216,-46.695579,-0.004898,-52.867367,0.000225
0.142424,28.098155,-0.002588,-25.223096,-0.012121,-46.695573,-0.004644,-52.867191,0.000192
0.14309,28.097899,-0.002629,-25.223303,-0.012013,-46.695533,-0.004391,-52.867,0.000168
0.143755,28.097658,-0.002682,-25.223489,-0.011893,-46.69546,-0.004138,-52.866798,0.000155
0.144421,28.097431,-0.002748,-25.223652,-0.011763,-46.695352,-0.003886,-52.866587,0.000155
0.145086,28.097221,-0.002827,-25.223791,-0.011624,-46.695208,-0.003634,-52.86637,0.00017
0.145752,28.097028,-0.002919,-25.223907,-0.011478,-46.695029,-0.003382,-52.866151,0.0002
0.146417,28.096853,-0.003023,-25.223997,-0.011326,-46.694814,-0.003129,-52.865932,0.000248
0.147083,28.096698,-0.003139,-25.224062,-0.011168,-46.694562,-0.002876,-52.865717,0.000314
0.147748,28.096563,-0.003266,-25.2241,-0.011006,-46.694274,-0.002621,-52.865507,0.000399
0.148414,28.096448,-0.003403,-25.224113,-0.010839,-46.69395,-0.002363,-52.865306,0.000503
0.149079,28.096354,-0.00355,-25.224099,-0.010669,-46.69359,-0.002103,-52.865114,0.000628
