Time (s),WAA_angle,WAA_disp,WFE_angle,WFE_disp,EPS_angle,EPS_disp,EFE_angle,EFE_disp
0.0,12.660537,0.0,-31.091664,0.0,-45.568766,0.0,-56.967618,0.0
0.000781,12.642629,-0.0,-31.107721,-0.0,-45.563773,0.0,-56.970726,-0.0
0.001562,12.623151,-0.0,-31.125051,-3e-06,-45.558369,1e-06,-56.97414,-0.0
0.002343,12.602188,-1e-06,-31.143551,-1.3e-05,-45.552583,4e-06,-56.977852,-2e-06
0.003124,12.579848,-3e-06,-31.163093,-4.3e-05,-45.54645,1.3e-05,-56.981849,-8e-06
0.003905,12.556262,-8e-06,-31.183532,-0.000114,-45.540014,3.6e-05,-56.986115,-2.2e-05
0.004686,12.531572,-1.9e-05,-31.204709,-0.000258,-45.53332,8e-05,-56.990632,-5.1e-05
0.005467,12.50593,-3.9e-05,-31.226459,-0.000514,-45.526418,0.00016,-56.995379,-0.000101
0.006248,12.479489,-7.4e-05,-31.248614,-0.000934,-45.519357,0.000291,-57.000332,-0.000185
0.007029,12.452404,-0.000129,-31.271009,-0.001576,-45.512187,0.000492,-57.005469,-0.000313
0.00781,12.424827,-0.000212,-31.293484,-0.002506,-45.504954,0.000783,-57.010766,-0.000499
0.008591,12.396902,-0.000332,-31.315887,-0.003792,-45.497704,0.001186,-57.016199,-0.000759
0.009372,12.368768,-0.0005,-31.338076,-0.005509,-45.490478,0.001724,-57.021746,-0.001108
0.010154,12.340553,-0.000728,-31.359923,-0.007726,-45.483316,0.00242,-57.027383,-0.001562
0.010935,12.312376,-0.001028,-31.381308,-0.010515,-45.476252,0.003296,-57.033089,-0.002137
0.011716,12.284346,-0.001417,-31.402125,-0.013937,-45.469316,0.004373,-57.038842,-0.002848
0.012497,12.256563,-0.001908,-31.422281,-0.018051,-45.462535,0.005669,-57.044621,-0.003711
0.013278,12.229115,-0.002519,-31.44169,-0.022901,-45.455934,0.0072,-57.050406,-0.004736
0.014059,12.202082,-0.003267,-31.460282,-0.028523,-45.449533,0.008977,-57.05618,-0.005937
0.01484,12.175535,-0.004171,-31.477994,-0.034937,-45.443349,0.011009,-57.061923,-0.007321
0.015621,12.149536,-0.005248,-31.494776,-0.042151,-45.437396,0.013298,-57.067619,-0.008894
0.016402,12.124139,-0.006519,-31.510589,-0.050156,-45.431685,0.015844,-57.073251,-0.01066
0.017183,12.09939,-0.008,-31.525402,-0.058926,-45.426227,0.01864,-57.078805,-0.01262
0.017964,12.075329,-0.009711,-31.539196,-0.068421,-45.421028,0.021675,-57.084267,-0.014771
0.018745,12.05199,-0.01167,-31.551964,-0.078585,-45.416092,0.024933,-57.089625,-0.017107
0.019526,12.029401,-0.013893,-31.563704,-0.089346,-45.411424,0.028394,-57.094867,-0.019619
0.020307,12.007585,-0.016398,-31.574424,-0.10062,-45.407024,0.032033,-57.099982,-0.022297
0.021088,11.986564,-0.019198,-31.584139,-0.112308,-45.402895,0.035821,-57.10496,-0.025124
0.021869,11.966354,-0.022309,-31.592868,-0.124303,-45.399035,0.039726,-57.109793,-0.028084
0.02265,11.946972,-0.02574,-31.600633,-0.136486,-45.395445,0.043713,-57.114473,-0.031158
0.023431,11.928434,-0.029503,-31.607458,-0.148732,-45.392124,0.047744,-57.11899,-0.034323
0.024212,11.910753,-0.033606,-31.613368,-0.160911,-45.389072,0.05178,-57.12334,-0.037556
0.024993,11.893942,-0.038054,-31.618388,-0.17289,-45.386288,0.055782,-57.127514,-0.040833
0.025774,11.878012,-0.042851,-31.622542,-0.184537,-45.38377,0.059707,-57.131507,-0.044127
0.026555,11.862973,-0.047998,-31.625854,-0.195718,-45.381517,0.063516,-57.135315,-0.047411
0.027336,11.848833,-0.053493,-31.628347,-0.206305,-45.379527,0.06717,-57.138932,-0.050659
0.028117,11.835598,-0.059332,-31.630043,-0.216176,-45.377797,0.07063,-57.142357,-0.053842
0.028898,11.82327,-0.065509,-31.630964,-0.225214,-45.376323,0.073859,-57.145587,-0.056936
0.029679,11.811853,-0.072012,-31.63113,-0.233314,-45.3751,0.076825,-57.148621,-0.059913
0.030461,11.801346,-0.07883,-31.630564,-0.240379,-45.374124,0.079496,-57.151459,-0.062748
0.031242,11.791749,-0.085948,-31.629286,-0.246324,-45.37339,0.081844,-57.154101,-0.065419
0.032023,11.783061,-0.093346,-31.627318,-0.251078,-45.372893,0.083845,-57.156548,-0.067902
0.032804,11.775286,-0.101005,-31.624683,-0.254582,-45.372628,0.085479,-57.158802,-0.070178
0.033585,11.768424,-0.108901,-31.621402,-0.256791,-45.372592,0.086729,-57.160864,-0.072228
0.034366,11.762482,-0.117007,-31.6175,-0.257673,-45.372783,0.087583,-57.162735,-0.074035
0.035147,11.757466,-0.125296,-31.612998,-0.257212,-45.373198,0.088032,-57.164416,-0.075587
0.035928,11.753385,-0.133735,-31.607921,-0.255404,-45.373838,0.08807,-57.16591,-0.076871
0.036709,11.750249,-0.142293,-31.602291,-0.252258,-45.374703,0.087698,-57.167216,-0.077877
0.03749,11.748067,-0.150934,-31.596131,-0.247796,-45.375795,0.086918,-57.168337,-0.078599
0.038271,11.74685,-0.159621,-31.589464,-0.242052,-45.377116,0.085736,-57.169274,-0.079032
0.039052,11.746607,-0.168316,-31.582313,-0.23507,-45.378668,0.084162,-57.170029,-0.079173
0.039833,11.747346,-0.176978,-31.574701,-0.226904,-45.380455,0.082207,-57.170605,-0.079023
0.040614,11.749072,-0.185566,-31.566651,-0.217616,-45.382478,0.079888,-57.171001,-0.078584
0.041395,11.751786,-0.194037,-31.558189,-0.207277,-45.384737,0.07722,-57.171222,-0.077858
0.042176,11.755488,-0.20235,-31.549342,-0.195962,-45.387233,0.074223,-57.171267,-0.076853
0.042957,11.760173,-0.210459,-31.540139,-0.183752,-45.389961,0.070918,-57.171137,-0.075574
0.043738,11.76583,-0.21832,-31.53061,-0.170732,-45.392917,0.067326,-57.170833,-0.074031
0.044519,11.772449,-0.22589,-31.52079,-0.156987,-45.396094,0.063469,-57.170355,-0.072235
0.0453,11.780017,-0.233123,-31.510711,-0.142607,-45.399483,0.059371,-57.169701,-0.070195
0.046081,11.788518,-0.239977,-31.50041,-0.127679,-45.403074,0.055054,-57.16887,-0.067925
0.046862,11.797938,-0.246407,-31.489921,-0.112291,-45.406855,0.050541,-57.167857,-0.065437
0.047643,11.808261,-0.252371,-31.479279,-0.096528,-45.410813,0.045855,-57.166661,-0.062744
0.048424,11.819473,-0.257827,-31.468517,-0.080474,-45.414936,0.041017,-57.165277,-0.059861
0.049205,11.831563,-0.262735,-31.457664,-0.064208,-45.419212,0.036048,-57.163701,-0.0568
0.049986,11.844521,-0.267056,-31.44675,-0.047808,-45.423627,0.030969,-57.161928,-0.053576
0.050768,11.858337,-0.270753,-31.4358,-0.031345,-45.42817,0.025798,-57.159954,-0.050203
0.051549,11.873004,-0.273789,-31.424835,-0.014887,-45.43283,0.020552,-57.157776,-0.046693
0.05233,11.888516,-0.276131,-31.413875,0.001503,-45.437594,0.015249,-57.155391,-0.043061
0.053111,11.904866,-0.277748,-31.402935,0.017768,-45.442453,0.009902,-57.152796,-0.039318
0.053892,11.922045,-0.278609,-31.392031,0.033853,-45.447395,0.004527,-57.149992,-0.035477
0.054673,11.940047,-0.278689,-31.381172,0.049711,-45.452411,-0.000864,-57.146977,-0.031548
0.055454,11.958864,-0.277964,-31.370366,0.065298,-45.457491,-0.006259,-57.143754,-0.027543
0.056235,11.978486,-0.27641,-31.359621,0.080576,-45.462627,-0.011647,-57.140324,-0.023469
0.057016,11.998907,-0.27401,-31.348938,0.095511,-45.467812,-0.017019,-57.136687,-0.019338
0.057797,12.020116,-0.270748,-31.338318,0.110072,-45.473038,-0.022365,-57.132846,-0.015155
0.058578,12.042106,-0.266609,-31.327759,0.124234,-45.4783,-0.027678,-57.128802,-0.010928
0.059359,12.064867,-0.261585,-31.317258,0.137976,-45.483593,-0.032948,-57.124555,-0.006664
0.06014,12.088391,-0.255669,-31.306806,0.151277,-45.488915,-0.038169,-57.120106,-0.002367
0.060921,12.112668,-0.248855,-31.296394,0.164123,-45.494264,-0.043334,-57.115454,0.001957
0.061702,12.137688,-0.241143,-31.286011,0.176502,-45.499638,-0.048437,-57.110597,0.006305
0.062483,12.163439,-0.232536,-31.275642,0.188403,-45.50504,-0.05347,-57.105533,0.010673
0.063264,12.189907,-0.223037,-31.265269,0.19982,-45.510469,-0.058428,-57.10026,0.015059
0.064045,12.217076,-0.212656,-31.254876,0.210746,-45.515929,-0.063304,-57.094775,0.019461
0.064826,12.244931,-0.201402,-31.244442,0.221181,-45.521422,-0.068093,-57.089074,0.023875
0.065607,12.273452,-0.189291,-31.233947,0.23112,-45.526952,-0.072788,-57.083154,0.028302
0.066388,12.302621,-0.176339,-31.223367,0.240567,-45.532523,-0.077383,-57.077011,0.032739
0.067169,12.332419,-0.162564,-31.212683,0.249521,-45.538137,-0.081873,-57.070641,0.037184
0.06795,12.362828,-0.147989,-31.20187,0.257987,-45.543799,-0.086252,-57.064042,0.041638
0.068731,12.393827,-0.132639,-31.190909,0.265969,-45.549511,-0.090514,-57.057208,0.046099
0.069512,12.425401,-0.116541,-31.179778,0.273473,-45.555276,-0.094653,-57.050138,0.050566
0.070294,12.45753,-0.099723,-31.168456,0.280507,-45.561096,-0.098665,-57.042829,0.055038
0.071075,12.4902,-0.082218,-31.156925,0.287079,-45.566971,-0.102543,-57.035278,0.059514
0.071856,12.523395,-0.064058,-31.145166,0.293198,-45.572901,-0.106285,-57.027484,0.063992
0.072637,12.557098,-0.045279,-31.133162,0.298875,-45.578885,-0.109885,-57.019448,0.068472
0.073418,12.591295,-0.025919,-31.120897,0.304123,-45.584922,-0.11334,-57.011169,0.072951
0.074199,12.625971,-0.006015,-31.108354,0.308953,-45.591008,-0.116646,-57.00265,0.077429
0.07498,12.661112,0.014393,-31.09552,0.31338,-45.597141,-0.119801,-56.993892,0.081905
0.075761,12.696703,0.035262,-31.08238,0.317418,-45.603315,-0.122803,-56.984899,0.086375
0.076542,12.73273,0.056551,-31.068921,0.321084,-45.609527,-0.125649,-56.975676,0.090839
0.077323,12.76918,0.078216,-31.05513,0.324395,-45.61577,-0.12834,-56.966226,0.095294
0.078104,12.806039,0.100213,-31.040995,0.327367,-45.622039,-0.130873,-56.956554,0.099738
0.078885,12.843295,0.122497,-31.026505,0.330019,-45.62833,-0.133251,-56.946666,0.10417
0.079666,12.880936,0.145023,-31.011649,0.332371,-45.634634,-0.135473,-56.936567,0.108586
0.080447,12.918951,0.167745,-30.996416,0.334441,-45.640948,-0.13754,-56.926264,0.112986
0.081228,12.957329,0.190618,-30.980796,0.336251,-45.647264,-0.139454,-56.915761,0.117365
0.082009,12.996059,0.213596,-30.964781,0.337819,-45.653577,-0.141218,-56.905065,0.121721
0.08279,13.03513,0.236632,-30.948362,0.339166,-45.659879,-0.142833,-56.894183,0.126053
0.083571,13.074531,0.259683,-30.93153,0.340314,-45.666166,-0.144302,-56.883121,0.130356
0.084352,13.114251,0.282702,-30.914278,0.341283,-45.67243,-0.145628,-56.871886,0.134627
0.085133,13.15428,0.305646,-30.8966,0.342092,-45.678666,-0.146814,-56.860485,0.138864
0.085914,13.194607,0.32847,-30.878487,0.342761,-45.684867,-0.147863,-56.848925,0.143063
0.086695,13.23522,0.351133,-30.859936,0.343311,-45.691027,-0.148778,-56.837211,0.14722
0.087476,13.276109,0.373592,-30.840939,0.34376,-45.697142,-0.149561,-56.82535,0.151332
0.088257,13.317263,0.395805,-30.821491,0.344127,-45.703205,-0.150216,-56.813347,0.155395
0.089038,13.358673,0.417735,-30.801588,0.344427,-45.709212,-0.150746,-56.801206,0.159404
0.089819,13.400327,0.439341,-30.781224,0.344679,-45.715159,-0.151151,-56.788929,0.163354
0.090601,13.442217,0.460587,-30.760398,0.344897,-45.721041,-0.151436,-56.776519,0.167243
0.091382,13.484331,0.481436,-30.739105,0.345096,-45.726855,-0.1516,-56.763978,0.171064
0.092163,13.526661,0.501855,-30.717343,0.34529,-45.732598,-0.151646,-56.751306,0.174812
0.092944,13.569195,0.521812,-30.695111,0.345489,-45.738266,-0.151575,-56.738502,0.178483
0.093725,13.611923,0.541273,-30.672409,0.345706,-45.743856,-0.151387,-56.725566,0.182072
0.094506,13.654834,0.560211,-30.649238,0.345949,-45.749366,-0.151084,-56.712496,0.185572
0.095287,13.697917,0.578596,-30.625599,0.346228,-45.754794,-0.150664,-56.699291,0.18898
0.096068,13.74116,0.596404,-30.601495,0.346549,-45.760138,-0.150127,-56.685948,0.192288
0.096849,13.784551,0.61361,-30.576929,0.346919,-45.765394,-0.149474,-56.672466,0.195492
0.09763,13.828079,0.63019,-30.551906,0.347342,-45.770563,-0.148704,-56.658844,0.198587
0.098411,13.871729,0.646125,-30.52643,0.347822,-45.775641,-0.147815,-56.645081,0.201567
0.099192,13.91549,0.661394,-30.500508,0.348361,-45.780627,-0.146806,-56.631178,0.204427
0.099973,13.959349,0.675981,-30.474146,0.34896,-45.785521,-0.145677,-56.617135,0.207164
0.100754,14.003291,0.689871,-30.447351,0.34962,-45.79032,-0.144426,-56.602954,0.209771
0.101535,14.047302,0.703049,-30.420131,0.350341,-45.795023,-0.143052,-56.58864,0.212246
0.102316,14.091368,0.715503,-30.392495,0.35112,-45.79963,-0.141553,-56.574196,0.214584
0.103097,14.135471,0.727224,-30.364454,0.351955,-45.804139,-0.13993,-56.55963,0.216782
0.103878,14.179596,0.738201,-30.336018,0.352842,-45.80855,-0.138181,-56.544949,0.218837
0.104659,14.223725,0.748429,-30.307198,0.353777,-45.812861,-0.136305,-56.530162,0.220747
0.10544,14.26784,0.757902,-30.278004,0.354756,-45.817072,-0.134302,-56.515279,0.22251
0.106221,14.311922,0.766615,-30.248449,0.355772,-45.821182,-0.132171,-56.500311,0.224125
0.107002,14.355953,0.774567,-30.218541,0.35682,-45.825193,-0.129914,-56.48527,0.225589
0.107783,14.399913,0.781756,-30.188291,0.357892,-45.829102,-0.12753,-56.470169,0.226904
0.108564,14.443785,0.788183,-30.157705,0.35898,-45.832913,-0.125021,-56.455022,0.228068
0.109345,14.487547,0.793849,-30.126789,0.360078,-45.836625,-0.122387,-56.439843,0.229081
0.110127,14.531182,0.798756,-30.095548,0.361176,-45.840241,-0.11963,-56.424645,0.229944
0.110908,14.57467,0.80291,-30.063982,0.362267,-45.843762,-0.116752,-56.409445,0.230657
0.111689,14.617992,0.806315,-30.032091,0.36334,-45.847192,-0.113755,-56.394259,0.231221
0.11247,14.661127,0.808977,-29.999873,0.364386,-45.850535,-0.110642,-56.379102,0.231637
0.113251,14.704055,0.810904,-29.967321,0.365396,-45.853794,-0.107416,-56.363993,0.231904
0.114032,14.746756,0.812102,-29.934429,0.366361,-45.856975,-0.10408,-56.34895,0.232025
0.114813,14.789208,0.812582,-29.901187,0.367269,-45.860084,-0.100639,-56.333992,0.231999
0.115594,14.83139,0.812351,-29.867583,0.368113,-45.863126,-0.097095,-56.319137,0.231825
0.116375,14.873282,0.811421,-29.833606,0.368881,-45.866109,-0.093453,-56.304406,0.231505
0.117156,14.914862,0.809802,-29.799239,0.369564,-45.869042,-0.089718,-56.289817,0.231037
0.117937,14.95611,0.807506,-29.764466,0.370153,-45.871932,-0.085895,-56.275392,0.230421
0.118718,14.997007,0.804542,-29.729271,0.370639,-45.874789,-0.081989,-56.261149,0.229654
0.119499,15.037532,0.800925,-29.693633,0.371014,-45.877624,-0.078005,-56.247108,0.228735
0.12028,15.077667,0.796665,-29.657533,0.37127,-45.880447,-0.073949,-56.233289,0.227661
0.121061,15.117394,0.791775,-29.62095,0.3714,-45.883271,-0.069826,-56.219711,0.226428
0.121842,15.156694,0.786269,-29.583862,0.371398,-45.886109,-0.065643,-56.206394,0.225033
0.122623,15.195548,0.780158,-29.546245,0.371259,-45.888973,-0.061407,-56.193359,0.223471
0.123404,15.233939,0.773455,-29.508077,0.370978,-45.891878,-0.057123,-56.180626,0.221737
0.124185,15.271847,0.766173,-29.469332,0.370552,-45.894839,-0.052799,-56.168216,0.219826
0.124966,15.309253,0.758324,-29.429988,0.36998,-45.897869,-0.04844,-56.156151,0.217731
0.125747,15.346141,0.749922,-29.390021,0.36926,-45.900983,-0.044056,-56.14445,0.215445
0.126528,15.38249,0.740978,-29.349408,0.368395,-45.904194,-0.039653,-56.133133,0.212961
0.127309,15.418283,0.731505,-29.308127,0.367385,-45.907515,-0.035238,-56.12222,0.210272
0.12809,15.453503,0.721514,-29.266157,0.366235,-45.910955,-0.03082,-56.111728,0.20737
0.128871,15.488134,0.711018,-29.22348,0.36495,-45.914525,-0.026408,-56.101675,0.204245
0.129652,15.522157,0.700028,-29.18008,0.363536,-45.918232,-0.022008,-56.092074,0.200891
0.130434,15.555559,0.688555,-29.135945,0.362001,-45.92208,-0.017631,-56.082942,0.197297
0.131215,15.588323,0.676609,-29.091063,0.360354,-45.92607,-0.013284,-56.074291,0.193457
0.131996,15.620434,0.664201,-29.045428,0.358606,-45.930202,-0.008977,-56.066134,0.189359
0.132777,15.651875,0.651342,-28.999038,0.356768,-45.934471,-0.00472,-56.058485,0.184997
0.133558,15.682632,0.63804,-28.951892,0.354853,-45.938872,-0.000521,-56.051355,0.180362
0.134339,15.712689,0.624305,-28.903997,0.352876,-45.943394,0.00361,-56.044758,0.175446
0.13512,15.742029,0.610147,-28.85536,0.35085,-45.948026,0.007663,-56.038704,0.17024
0.135901,15.77064,0.595573,-28.805994,0.348791,-45.952756,0.011629,-56.033204,0.164738
0.136682,15.798506,0.580592,-28.755915,0.346714,-45.957569,0.015499,-56.028266,0.158933
0.137463,15.825617,0.565212,-28.705142,0.344635,-45.96245,0.019264,-56.023895,0.152818
0.138244,15.851961,0.54944,-28.653699,0.342569,-45.967383,0.022915,-56.020096,0.146388
0.139025,15.87753,0.533283,-28.601612,0.340533,-45.972352,0.026444,-56.016868,0.139638
0.139806,15.902318,0.516749,-28.548914,0.338542,-45.977342,0.029843,-56.014212,0.132564
0.140587,15.92632,0.499843,-28.495638,0.336608,-45.982337,0.033106,-56.012121,0.125163
0.141368,15.949532,0.482572,-28.441827,0.334747,-45.987325,0.036226,-56.01059,0.117433
0.142149,15.971953,0.464943,-28.387525,0.332969,-45.992291,0.039199,-56.009614,0.109371
0.14293,15.99358,0.446961,-28.332784,0.331285,-45.997222,0.04202,-56.009186,0.100979
0.143711,16.014414,0.428631,-28.27766,0.329705,-46.002106,0.044686,-56.009299,0.092256
0.144492,16.034454,0.409959,-28.222212,0.328234,-46.006934,0.047197,-56.009951,0.083205
0.145273,16.053701,0.39095,-28.166508,0.326878,-46.011695,0.049551,-56.011138,0.073828
0.146054,16.072156,0.37161,-28.110615,0.325638,-46.016381,0.051749,-56.01286,0.064129
0.146835,16.089823,0.351944,-28.054606,0.324515,-46.020985,0.053795,-56.015118,0.054114
0.147616,16.106705,0.331957,-27.998556,0.323505,-46.025502,0.05569,-56.017916,0.04379
0.148397,16.122808,0.311654,-27.942541,0.322602,-46.02993,0.057442,-56.021258,0.033164
0.149178,16.138137,0.29104,-27.88664,0.321797,-46.034266,0.059055,-56.02515,0.022244
0.149959,16.152702,0.270121,-27.830935,0.321078,-46.038512,0.060538,-56.029597,0.011042
0.150741,16.16651,0.248901,-27.775507,0.320428,-46.042669,0.061899,-56.034606,-0.000432
0.151522,16.179571,0.227387,-27.720444,0.319831,-46.046743,0.063148,-56.040179,-0.012166
0.152303,16.191892,0.205584,-27.665832,0.319262,-46.050739,0.064295,-56.046319,-0.024146
0.153084,16.203484,0.183499,-27.611765,0.318698,-46.054666,0.065351,-56.053024,-0.036358
0.153865,16.214353,0.161136,-27.558336,0.318108,-46.058533,0.066329,-56.060288,-0.048787
0.154646,16.224509,0.138504,-27.505642,0.317462,-46.06235,0.067241,-56.068103,-0.061419
0.155427,16.233959,0.115608,-27.45378,0.316725,-46.066129,0.068098,-56.076457,-0.074236
0.156208,16.242714,0.092457,-27.402848,0.315858,-46.06988,0.068915,-56.085336,-0.087222
0.156989,16.250783,0.069057,-27.352941,0.31482,-46.073617,0.069702,-56.094724,-0.100361
0.15777,16.258177,0.045417,-27.304154,0.313569,-46.077349,0.070471,-56.104601,-0.113635
0.158551,16.264911,0.021545,-27.256578,0.312058,-46.08109,0.071235,-56.114948,-0.127028
0.159332,16.270998,-0.002549,-27.210302,0.31024,-46.084849,0.072003,-56.125744,-0.140521
0.160113,16.276456,-0.026857,-27.165412,0.308063,-46.088636,0.072785,-56.136967,-0.154098
0.160894,16.2813,-0.051368,-27.12199,0.305477,-46.092461,0.07359,-56.148593,-0.167742
0.161675,16.285547,-0.076072,-27.080119,0.302428,-46.096331,0.074426,-56.160598,-0.181434
0.162456,16.289213,-0.100958,-27.039879,0.298861,-46.100254,0.075297,-56.172955,-0.195159
0.163237,16.292311,-0.126013,-27.00135,0.29472,-46.104236,0.07621,-56.185639,-0.208899
0.164018,16.294852,-0.151225,-26.964609,0.289951,-46.108282,0.077166,-56.198618,-0.222637
0.164799,16.296844,-0.176583,-26.929731,0.284496,-46.112397,0.078169,-56.211862,-0.236356
0.16558,16.298293,-0.202072,-26.896784,0.278301,-46.116586,0.079219,-56.225341,-0.250039
0.166361,16.299201,-0.227677,-26.865829,0.271308,-46.120852,0.080314,-56.239021,-0.263669
0.167142,16.299565,-0.253386,-26.836917,0.263464,-46.125198,0.081451,-56.252871,-0.27723
0.167923,16.299383,-0.279181,-26.810088,0.254716,-46.129628,0.082627,-56.266858,-0.290702
0.168704,16.298648,-0.305048,-26.785373,0.24501,-46.134145,0.083837,-56.280952,-0.30407
0.169485,16.297351,-0.33097,-26.762786,0.234298,-46.138751,0.085074,-56.295122,-0.317314
0.170267,16.295483,-0.35693,-26.742335,0.222532,-46.143449,0.086331,-56.309339,-0.330417
0.171048,16.293035,-0.38291,-26.724017,0.209666,-46.148241,0.0876,-56.323575,-0.34336
0.171829,16.289996,-0.408893,-26.707826,0.195658,-46.153131,0.088871,-56.337804,-0.356124
0.17261,16.286358,-0.43486,-26.693751,0.18047,-46.158119,0.090136,-56.351999,-0.36869
0.173391,16.282113,-0.460792,-26.681787,0.164066,-46.163208,0.091384,-56.366136,-0.381036
0.174172,16.277255,-0.486669,-26.671927,0.146415,-46.168398,0.092605,-56.380192,-0.393143
0.174953,16.271777,-0.512473,-26.664173,0.127491,-46.173691,0.093789,-56.394144,-0.40499
