Time (s),WAA_angle,WAA_disp,WFE_angle,WFE_disp,EPS_angle,EPS_disp,EFE_angle,EFE_disp
0.0,-29.979545,0.0,-19.045115,0.0,9.114966,0.0,25.174558,0.0
0.000758,-29.98037,-0.0,-19.044829,0.0,9.115521,0.0,25.178008,0.0
0.001515,-29.981247,-0.0,-19.044581,0.0,9.1162,0.0,25.181791,0.0
0.002273,-29.982168,-0.0,-19.044382,0.0,9.117015,0.0,25.185901,2e-06
0.00303,-29.983123,-0.0,-19.04425,1e-06,9.117979,1e-06,25.190325,8e-06
0.003788,-29.984098,-0.0,-19.044203,2e-06,9.119105,4e-06,25.195048,2.2e-05
0.004545,-29.98508,-1e-06,-19.04426,4e-06,9.120404,9e-06,25.200051,5e-05
0.005303,-29.986049,-2e-06,-19.044444,7e-06,9.121889,1.8e-05,25.205314,0.000101
0.00606,-29.986987,-3e-06,-19.044781,1.2e-05,9.123572,3.4e-05,25.210816,0.000184
0.006818,-29.987872,-5e-06,-19.045298,1.8e-05,9.125465,5.8e-05,25.216535,0.000312
0.007575,-29.988678,-8e-06,-19.046025,2.7e-05,9.127578,9.6e-05,25.222448,0.0005
0.008333,-29.98938,-1.3e-05,-19.046994,3.8e-05,9.129924,0.000149,25.228534,0.000761
0.00909,-29.989949,-2e-05,-19.048241,5e-05,9.132514,0.000224,25.234772,0.001114
0.009848,-29.990356,-2.8e-05,-19.049802,6.2e-05,9.135357,0.000324,25.241142,0.001573
0.010606,-29.99057,-4e-05,-19.051716,7.3e-05,9.138465,0.000457,25.247625,0.002158
0.011363,-29.990557,-5.4e-05,-19.054023,8.1e-05,9.141845,0.000627,25.254205,0.002883
0.012121,-29.990286,-7.3e-05,-19.056764,8.2e-05,9.145506,0.000841,25.260866,0.003765
0.012878,-29.989722,-9.5e-05,-19.059979,7.2e-05,9.149453,0.001107,25.267595,0.004819
0.013636,-29.988832,-0.000122,-19.063709,4.6e-05,9.153691,0.001432,25.274377,0.006057
0.014393,-29.987586,-0.000154,-19.067995,-1e-06,9.158224,0.001823,25.281204,0.007491
0.015151,-29.985952,-0.000191,-19.072876,-7.9e-05,9.163054,0.002288,25.288065,0.009129
0.015908,-29.983905,-0.000235,-19.078387,-0.000194,9.168182,0.002835,25.294951,0.010976
0.016666,-29.981423,-0.000283,-19.084562,-0.000357,9.173607,0.003472,25.301857,0.013037
0.017423,-29.97849,-0.000338,-19.091431,-0.000579,9.179329,0.004207,25.308776,0.015312
0.018181,-29.975095,-0.000399,-19.099018,-0.000874,9.185349,0.005047,25.315702,0.017797
0.018938,-29.971239,-0.000465,-19.107342,-0.001254,9.191663,0.006,25.322632,0.020489
0.019696,-29.966932,-0.000536,-19.116413,-0.001736,9.198273,0.007074,25.329562,0.023377
0.020454,-29.962197,-0.000612,-19.126234,-0.002335,9.205175,0.008274,25.33649,0.026451
0.021211,-29.95707,-0.000691,-19.136795,-0.003069,9.21237,0.009607,25.343413,0.029698
0.021969,-29.951603,-0.000773,-19.148075,-0.003957,9.219855,0.011079,25.350329,0.0331
0.022726,-29.945862,-0.000855,-19.160039,-0.005019,9.227629,0.012694,25.357235,0.036639
0.023484,-29.93993,-0.000936,-19.172644,-0.006275,9.23569,0.014457,25.364131,0.040295
0.024241,-29.933897,-0.001014,-19.185831,-0.007744,9.244035,0.016371,25.371014,0.044047
0.024999,-29.927864,-0.001086,-19.199537,-0.009449,9.252663,0.018438,25.377884,0.047872
0.025756,-29.921936,-0.00115,-19.21369,-0.011409,9.26157,0.020661,25.384736,0.051745
0.026514,-29.916219,-0.001203,-19.228217,-0.013644,9.270754,0.023041,25.391571,0.055642
0.027271,-29.910811,-0.001241,-19.243045,-0.016172,9.280212,0.025576,25.398384,0.059539
0.028029,-29.905806,-0.001261,-19.258101,-0.019013,9.289943,0.028267,25.405173,0.063412
0.028786,-29.901284,-0.00126,-19.273321,-0.022181,9.299943,0.031111,25.411935,0.067237
0.029544,-29.897312,-0.001233,-19.288647,-0.02569,9.310213,0.034105,25.418667,0.07099
0.030302,-29.893937,-0.001176,-19.304033,-0.02955,9.320749,0.037247,25.425363,0.074649
0.031059,-29.891195,-0.001085,-19.31944,-0.03377,9.331552,0.04053,25.432019,0.078195
0.031817,-29.889101,-0.000956,-19.334842,-0.038353,9.342619,0.043951,25.438629,0.081607
0.032574,-29.887659,-0.000785,-19.350221,-0.043299,9.353951,0.047502,25.445187,0.084869
0.033332,-29.886858,-0.000568,-19.365571,-0.048606,9.365546,0.051178,25.451688,0.087964
0.034089,-29.886677,-0.000302,-19.380892,-0.054264,9.377403,0.054971,25.458123,0.090878
0.034847,-29.887085,1.7e-05,-19.396192,-0.060261,9.389522,0.058874,25.464487,0.0936
0.035604,-29.888042,0.000392,-19.411484,-0.06658,9.4019,0.062877,25.470771,0.096119
0.036362,-29.889507,0.000825,-19.426786,-0.073199,9.414536,0.066972,25.47697,0.098427
0.037119,-29.891429,0.001319,-19.442119,-0.080094,9.427429,0.071151,25.483076,0.100518
0.037877,-29.893758,0.001875,-19.457505,-0.087234,9.440577,0.075404,25.489085,0.102388
0.038634,-29.896442,0.002493,-19.472967,-0.094587,9.453977,0.079722,25.49499,0.104035
0.039392,-29.899426,0.003175,-19.488526,-0.102116,9.467628,0.084095,25.500789,0.105456
0.04015,-29.902658,0.003919,-19.504201,-0.109783,9.481525,0.088514,25.506477,0.106653
0.040907,-29.906086,0.004725,-19.520011,-0.117546,9.495667,0.09297,25.512053,0.107627
0.041665,-29.909658,0.00559,-19.535967,-0.125365,9.51005,0.097454,25.517515,0.108382
0.042422,-29.913322,0.006511,-19.552081,-0.133196,9.524668,0.101956,25.522863,0.108921
0.04318,-29.917028,0.007486,-19.568358,-0.140996,9.539517,0.106467,25.528098,0.109249
0.043937,-29.920726,0.00851,-19.584799,-0.148723,9.554592,0.11098,25.53322,0.109372
0.044695,-29.924364,0.009578,-19.601403,-0.156335,9.569886,0.115486,25.538232,0.109296
0.045452,-29.927892,0.010684,-19.618163,-0.163794,9.585393,0.119977,25.543135,0.109026
0.04621,-29.931258,0.011822,-19.635068,-0.171061,9.601106,0.124446,25.547932,0.108571
0.046967,-29.93441,0.012986,-19.652104,-0.178103,9.617019,0.128885,25.552625,0.107936
0.047725,-29.937292,0.014167,-19.669255,-0.184889,9.633125,0.133288,25.557218,0.107129
0.048482,-29.93985,0.015358,-19.686499,-0.191389,9.649416,0.137648,25.561712,0.106156
0.04924,-29.942026,0.01655,-19.703812,-0.197581,9.665888,0.141959,25.566111,0.105024
0.049997,-29.943761,0.017736,-19.721168,-0.203444,9.682533,0.146216,25.570416,0.103739
0.050755,-29.944995,0.018906,-19.738536,-0.20896,9.699347,0.150412,25.574631,0.102308
0.051513,-29.945664,0.02005,-19.755884,-0.214119,9.716323,0.154543,25.578756,0.100737
0.05227,-29.945706,0.021161,-19.773177,-0.21891,9.733456,0.158604,25.582794,0.099031
0.053028,-29.945057,0.022229,-19.790378,-0.223328,9.750741,0.162589,25.586747,0.097195
0.053785,-29.943653,0.023244,-19.807451,-0.227371,9.768172,0.166495,25.590614,0.095235
0.054543,-29.941433,0.0242,-19.824356,-0.231041,9.785744,0.170317,25.594399,0.093156
0.0553,-29.938339,0.025086,-19.841057,-0.23434,9.803452,0.174049,25.598102,0.090962
0.056058,-29.934317,0.025896,-19.857521,-0.237274,9.821289,0.177689,25.601724,0.088658
0.056815,-29.929321,0.026622,-19.873715,-0.239852,9.839249,0.181232,25.605268,0.086248
0.057573,-29.923315,0.027257,-19.889614,-0.242081,9.857326,0.184674,25.608734,0.083736
0.05833,-29.916274,0.027796,-19.905197,-0.243972,9.875513,0.188011,25.612127,0.081125
0.059088,-29.90819,0.028234,-19.92045,-0.245535,9.893803,0.191238,25.615447,0.07842
0.059845,-29.899072,0.028567,-19.935366,-0.246781,9.912187,0.194352,25.618699,0.075625
0.060603,-29.888954,0.028791,-19.949945,-0.247719,9.930657,0.197348,25.621886,0.072743
0.061361,-29.877893,0.028904,-19.964194,-0.248358,9.949204,0.200223,25.625013,0.069777
0.062118,-29.865976,0.028907,-19.978127,-0.248707,9.967816,0.202972,25.628084,0.066733
0.062876,-29.853317,0.028799,-19.991764,-0.248773,9.986484,0.205592,25.631105,0.063614
0.063633,-29.840054,0.028582,-20.005129,-0.248561,10.005194,0.208078,25.63408,0.060423
0.064391,-29.826346,0.028258,-20.01825,-0.248075,10.023934,0.210427,25.637015,0.057165
0.065148,-29.812367,0.027834,-20.031158,-0.247318,10.042692,0.212634,25.639915,0.053844
0.065906,-29.798295,0.027313,-20.043884,-0.246291,10.061453,0.214695,25.642785,0.050464
0.066663,-29.784308,0.026703,-20.056462,-0.244993,10.080203,0.216607,25.64563,0.04703
0.067421,-29.770575,0.026012,-20.06892,-0.243422,10.09893,0.218365,25.648454,0.043546
0.068178,-29.757248,0.025249,-20.081287,-0.241575,10.117619,0.219965,25.651258,0.040017
0.068936,-29.744459,0.024426,-20.093587,-0.239449,10.136258,0.221403,25.654046,0.036449
0.069693,-29.732312,0.023553,-20.10584,-0.23704,10.154833,0.222675,25.656818,0.032846
0.070451,-29.720882,0.022642,-20.118061,-0.234344,10.173333,0.223777,25.659574,0.029213
0.071209,-29.710218,0.021708,-20.130258,-0.231355,10.191745,0.224705,25.662312,0.025557
0.071966,-29.700344,0.020764,-20.142436,-0.228071,10.210057,0.225455,25.66503,0.021882
0.072724,-29.691262,0.019823,-20.154591,-0.22449,10.228259,0.226023,25.667724,0.018194
0.073481,-29.682957,0.018902,-20.166716,-0.220608,10.246339,0.226403,25.67039,0.0145
0.074239,-29.675397,0.018014,-20.178798,-0.216426,10.264285,0.226593,25.673022,0.010803
0.074996,-29.668542,0.017174,-20.190822,-0.211945,10.282086,0.226588,25.675614,0.007112
0.075754,-29.662341,0.016397,-20.202768,-0.207168,10.299731,0.226383,25.678162,0.003431
0.076511,-29.656736,0.015697,-20.214613,-0.2021,10.317207,0.225974,25.680659,-0.000235
0.077269,-29.651666,0.015088,-20.226335,-0.196747,10.334504,0.225358,25.683101,-0.003879
0.078026,-29.647068,0.014582,-20.237909,-0.191118,10.351611,0.224529,25.685485,-0.007496
0.078784,-29.64288,0.014191,-20.249311,-0.185224,10.368514,0.223483,25.687807,-0.011081
0.079541,-29.639039,0.013927,-20.260518,-0.179075,10.385203,0.222217,25.690067,-0.01463
0.080299,-29.635488,0.0138,-20.271507,-0.172687,10.401664,0.220726,25.692264,-0.018138
0.081057,-29.632169,0.013818,-20.282255,-0.166073,10.417885,0.219005,25.694399,-0.0216
0.081814,-29.629033,0.013988,-20.29274,-0.15925,10.433853,0.217052,25.696476,-0.025014
0.082572,-29.626033,0.014317,-20.302942,-0.152234,10.449553,0.214863,25.698498,-0.028375
0.083329,-29.623129,0.01481,-20.31284,-0.145042,10.464971,0.212433,25.700471,-0.031682
0.084087,-29.620286,0.015469,-20.322414,-0.137691,10.48009,0.20976,25.702401,-0.034931
0.084844,-29.617472,0.016296,-20.331642,-0.130198,10.494894,0.20684,25.704293,-0.038122
0.085602,-29.614663,0.017291,-20.340505,-0.12258,10.509368,0.20367,25.706155,-0.041252
0.086359,-29.611839,0.018452,-20.34898,-0.114852,10.523495,0.200248,25.707993,-0.044322
0.087117,-29.608981,0.019777,-20.357047,-0.10703,10.537258,0.19657,25.709815,-0.04733
0.087874,-29.606076,0.021261,-20.364685,-0.099127,10.550642,0.192636,25.711627,-0.050277
0.088632,-29.603115,0.022898,-20.37187,-0.091155,10.563633,0.188442,25.713433,-0.053163
0.089389,-29.600089,0.02468,-20.378581,-0.083125,10.576214,0.183987,25.715239,-0.055988
0.090147,-29.596993,0.0266,-20.384793,-0.075045,10.588372,0.17927,25.717049,-0.058753
0.090905,-29.593823,0.028647,-20.390483,-0.066922,10.600093,0.174288,25.718865,-0.061458
0.091662,-29.590575,0.030811,-20.395626,-0.058762,10.611365,0.169042,25.720689,-0.064106
0.09242,-29.587249,0.033079,-20.400198,-0.050566,10.622174,0.163529,25.722519,-0.066696
0.093177,-29.583842,0.035438,-20.404172,-0.042337,10.632507,0.15775,25.724357,-0.06923
0.093935,-29.580356,0.037875,-20.407525,-0.034073,10.642351,0.151703,25.726198,-0.071709
0.094692,-29.576789,0.040376,-20.410233,-0.025771,10.651696,0.145389,25.728041,-0.074132
0.09545,-29.573141,0.042926,-20.412276,-0.017426,10.66053,0.138808,25.72988,-0.076501
0.096207,-29.569411,0.045508,-20.413636,-0.009033,10.668846,0.131959,25.731712,-0.078815
0.096965,-29.565598,0.048108,-20.414302,-0.000583,10.676636,0.124842,25.733532,-0.081075
0.097722,-29.5617,0.050709,-20.414268,0.007933,10.683898,0.117459,25.735332,-0.08328
0.09848,-29.557715,0.053295,-20.413536,0.016525,10.690629,0.109808,25.737109,-0.08543
0.099237,-29.553637,0.05585,-20.412119,0.025206,10.696832,0.101893,25.738855,-0.087524
0.099995,-29.549462,0.058358,-20.410036,0.033987,10.702511,0.093712,25.740566,-0.089561
0.100753,-29.545184,0.060803,-20.407323,0.042882,10.707675,0.085268,25.742234,-0.091539
0.10151,-29.540793,0.063171,-20.404025,0.051904,10.712331,0.076562,25.743855,-0.093458
0.102268,-29.536282,0.065445,-20.400201,0.061066,10.71649,0.067596,25.745422,-0.095317
0.103025,-29.531639,0.067611,-20.395922,0.070381,10.720164,0.058372,25.74693,-0.097114
0.103783,-29.526853,0.069656,-20.391267,0.079863,10.723364,0.048892,25.748372,-0.098847
0.10454,-29.521911,0.071566,-20.386325,0.089523,10.726101,0.039159,25.749744,-0.100516
0.105298,-29.516801,0.073329,-20.381188,0.099373,10.728385,0.029178,25.75104,-0.10212
0.106055,-29.51151,0.074933,-20.375948,0.10942,10.730226,0.018952,25.752257,-0.103657
0.106813,-29.506025,0.076368,-20.370694,0.119672,10.731636,0.008487,25.753389,-0.105128
0.10757,-29.500335,0.077624,-20.36551,0.130135,10.732624,-0.002213,25.754433,-0.106531
0.108328,-29.494428,0.078693,-20.360469,0.14081,10.733198,-0.013141,25.755388,-0.107868
0.109085,-29.488295,0.079567,-20.355634,0.151696,10.733368,-0.024289,25.75625,-0.109138
0.109843,-29.481928,0.08024,-20.351054,0.162788,10.733143,-0.035649,25.757019,-0.110341
0.110601,-29.475324,0.080706,-20.346762,0.174079,10.732534,-0.047213,25.757695,-0.111481
0.111358,-29.468479,0.080961,-20.34278,0.185555,10.731549,-0.058969,25.758275,-0.112557
0.112116,-29.461393,0.081002,-20.339118,0.1972,10.730201,-0.070907,25.758761,-0.113572
0.112873,-29.454071,0.080828,-20.335776,0.208994,10.728501,-0.083015,25.759152,-0.114529
0.113631,-29.446517,0.080438,-20.332743,0.22091,10.72646,-0.095279,25.759447,-0.11543
0.114388,-29.43874,0.079833,-20.330003,0.232919,10.724091,-0.107686,25.759644,-0.116277
0.115146,-29.430752,0.079014,-20.327534,0.244987,10.721408,-0.12022,25.75974,-0.117076
0.115903,-29.422564,0.077984,-20.325311,0.257077,10.718422,-0.132866,25.759734,-0.117828
0.116661,-29.414192,0.076748,-20.323304,0.269147,10.715147,-0.145606,25.75962,-0.118538
0.117418,-29.40565,0.07531,-20.321482,0.281154,10.711594,-0.158425,25.759393,-0.11921
0.118176,-29.396955,0.073676,-20.319816,0.293051,10.707773,-0.171302,25.759047,-0.119848
0.118933,-29.388124,0.071855,-20.318273,0.304789,10.703696,-0.184221,25.758575,-0.120456
0.119691,-29.379174,0.069853,-20.316824,0.316321,10.699369,-0.197161,25.757967,-0.121037
0.120449,-29.370123,0.067681,-20.315443,0.327595,10.694802,-0.210103,25.757216,-0.121597
0.121206,-29.360989,0.065347,-20.314103,0.338563,10.689999,-0.223028,25.756309,-0.122139
0.121964,-29.351791,0.062863,-20.312785,0.349177,10.684967,-0.235916,25.755238,-0.122666
0.122721,-29.342551,0.060239,-20.311469,0.35939,10.679709,-0.248746,25.75399,-0.123183
0.123479,-29.33329,0.057489,-20.31014,0.369159,10.67423,-0.261498,25.752555,-0.123692
0.124236,-29.324033,0.054624,-20.308789,0.378444,10.668533,-0.274154,25.75092,-0.124199
0.124994,-29.314806,0.051657,-20.307406,0.387207,10.662619,-0.286691,25.749074,-0.124704
0.125751,-29.30564,0.048602,-20.305985,0.395417,10.656492,-0.299093,25.747005,-0.125213
0.126509,-29.296567,0.045472,-20.304523,0.403045,10.650151,-0.311339,25.744703,-0.125728
0.127266,-29.287625,0.042282,-20.303017,0.410069,10.643597,-0.323412,25.742156,-0.126251
0.128024,-29.278855,0.039044,-20.301467,0.416471,10.636831,-0.335294,25.739354,-0.126785
0.128781,-29.270303,0.035774,-20.299869,0.42224,10.629849,-0.346968,25.736287,-0.127334
0.129539,-29.262019,0.032484,-20.298224,0.427368,10.622651,-0.358417,25.732948,-0.127899
0.130297,-29.254058,0.02919,-20.296529,0.431855,10.615234,-0.369627,25.729329,-0.128484
0.131054,-29.246481,0.025904,-20.294779,0.435704,10.607594,-0.380584,25.725426,-0.129092
0.131812,-29.239352,0.022639,-20.292972,0.438924,10.599727,-0.391274,25.721237,-0.129724
0.132569,-29.232738,0.019409,-20.2911,0.441528,10.591629,-0.401685,25.716761,-0.130385
0.133327,-29.226709,0.016226,-20.289156,0.443535,10.583296,-0.411807,25.712001,-0.131077
0.134084,-29.221335,0.013102,-20.287133,0.444965,10.574722,-0.421628,25.706964,-0.131802
0.134842,-29.216683,0.010047,-20.28502,0.445844,10.565902,-0.431142,25.701658,-0.132566
0.135599,-29.212817,0.007071,-20.282807,0.4462,10.556833,-0.44034,25.696093,-0.133369
0.136357,-29.209791,0.004186,-20.280483,0.446063,10.54751,-0.449217,25.690282,-0.134217
0.137114,-29.207651,0.001398,-20.278036,0.445465,10.537929,-0.457766,25.684238,-0.135111
0.137872,-29.20643,-0.001284,-20.275455,0.44444,10.528086,-0.465986,25.677977,-0.136056
0.138629,-29.206144,-0.003855,-20.272726,0.443021,10.517978,-0.473872,25.671515,-0.137055
0.139387,-29.20679,-0.006307,-20.26984,0.441244,10.507603,-0.481424,25.664869,-0.13811
0.140145,-29.208348,-0.008638,-20.266784,0.439144,10.49696,-0.488641,25.658056,-0.139225
0.140902,-29.210774,-0.010844,-20.263547,0.436754,10.486049,-0.495524,25.651092,-0.140401
0.14166,-29.214001,-0.012924,-20.26012,0.434109,10.474869,-0.502074,25.643996,-0.141642
0.142417,-29.217942,-0.014876,-20.256494,0.43124,10.463424,-0.508295,25.636786,-0.142948
0.143175,-29.222489,-0.016703,-20.252659,0.42818,10.451717,-0.514189,25.629479,-0.144319
0.143932,-29.22752,-0.018406,-20.248609,0.424957,10.439753,-0.519762,25.622095,-0.145757
0.14469,-29.232898,-0.019988,-20.244334,0.421598,10.427537,-0.525017,25.614652,-0.14726
0.145447,-29.238482,-0.021456,-20.239827,0.418131,10.415078,-0.529961,25.607169,-0.148827
0.146205,-29.24413,-0.022814,-20.235079,0.414577,10.402383,-0.5346,25.599665,-0.150455
0.146962,-29.249703,-0.024071,-20.23008,0.410959,10.38946,-0.53894,25.592157,-0.152141
0.14772,-29.255072,-0.025236,-20.22482,0.407296,10.37632,-0.542987,25.584664,-0.153879
0.148477,-29.260123,-0.026318,-20.219286,0.403605,10.362972,-0.546749,25.577203,-0.155665
0.149235,-29.264761,-0.027328,-20.213462,0.399902,10.349427,-0.550233,25.569789,-0.15749
0.149992,-29.268911,-0.028279,-20.207331,0.3962,10.335695,-0.553445,25.562438,-0.159348
0.15075,-29.272522,-0.029182,-20.200874,0.392509,10.321787,-0.556393,25.555165,-0.161229
0.151508,-29.275563,-0.030051,-20.194067,0.38884,10.307715,-0.559083,25.547982,-0.163123
0.152265,-29.278025,-0.030901,-20.186888,0.385201,10.29349,-0.561521,25.540903,-0.165019
0.153023,-29.279917,-0.031745,-20.179307,0.381598,10.279125,-0.563713,25.533939,-0.166904
0.15378,-29.281265,-0.032598,-20.171297,0.378036,10.264633,-0.565664,25.527102,-0.168766
0.154538,-29.282106,-0.033475,-20.162827,0.374519,10.250027,-0.567379,25.520402,-0.170591
0.155295,-29.282491,-0.034389,-20.153865,0.371052,10.235323,-0.568862,25.513848,-0.172365
0.156053,-29.282476,-0.035357,-20.144381,0.367636,10.220533,-0.570117,25.50745,-0.174072
0.15681,-29.282126,-0.036391,-20.134342,0.364274,10.205675,-0.571145,25.501214,-0.175697
0.157568,-29.281507,-0.037504,-20.123719,0.360968,10.190762,-0.571949,25.495146,-0.177226
0.158325,-29.280687,-0.03871,-20.112483,0.357719,10.17581,-0.57253,25.489251,-0.178641
0.159083,-29.279735,-0.04002,-20.100608,0.354531,10.160837,-0.572889,25.483534,-0.179928
0.15984,-29.278716,-0.041445,-20.088073,0.351405,10.145857,-0.573024,25.477995,-0.18107
0.160598,-29.277697,-0.042995,-20.074861,0.348345,10.130888,-0.572934,25.472636,-0.182053
0.161356,-29.276739,-0.044678,-20.060959,0.345354,10.115947,-0.572618,25.467455,-0.182862
0.162113,-29.275903,-0.046503,-20.046363,0.342437,10.10105,-0.572073,25.462452,-0.183483
0.162871,-29.275249,-0.048475,-20.031075,0.339599,10.086216,-0.571294,25.457624,-0.183901
0.163628,-29.274838,-0.050599,-20.015103,0.336846,10.07146,-0.570279,25.452966,-0.184104
0.164386,-29.274729,-0.052879,-19.998466,0.334187,10.056801,-0.569022,25.448476,-0.184082
0.165143,-29.274985,-0.055317,-19.981188,0.331628,10.042254,-0.567519,25.444148,-0.183822
0.165901,-29.275671,-0.057914,-19.963302,0.329179,10.027835,-0.565762,25.439976,-0.183315
0.166658,-29.276857,-0.060669,-19.944848,0.326849,10.013556,-0.563747,25.435955,-0.182553
0.167416,-29.278616,-0.06358,-19.925876,0.32465,9.999431,-0.561467,25.432079,-0.18153
0.168173,-29.281029,-0.066646,-19.906441,0.322592,9.985469,-0.558914,25.428342,-0.180239
0.168931,-29.284181,-0.06986,-19.886606,0.320685,9.971676,-0.556083,25.424736,-0.178677
0.169688,-29.288166,-0.073218,-19.866442,0.318941,9.958058,-0.552965,25.421255,-0.17684
0.170446,-29.293084,-0.076713,-19.846028,0.317371,9.944615,-0.549553,25.417893,-0.174727
0.171204,-29.299038,-0.080339,-19.825449,0.315983,9.931345,-0.545841,25.414642,-0.172339
0.171961,-29.306143,-0.084086,-19.804798,0.314786,9.918244,-0.541822,25.411495,-0.169678
0.172719,-29.314511,-0.087946,-19.784175,0.313787,9.905305,-0.537487,25.408447,-0.166746
