Time (s),WAA_angle,WAA_disp,WFE_angle,WFE_disp,EPS_angle,EPS_disp,EFE_angle,EFE_disp
0.0,-28.522449,0.0,-28.450387,0.0,7.285193,0.0,32.535555,0.0
0.000744,-28.55868,0.0,-28.457166,0.0,7.24441,-1e-06,32.531861,0.0
0.001488,-28.598093,0.0,-28.464958,-1e-06,7.200344,-5e-06,32.527841,0.0
0.002232,-28.640566,-1e-06,-28.473815,-4e-06,7.153189,-2.7e-05,32.523508,-2e-06
0.002976,-28.685927,-5e-06,-28.483785,-1.5e-05,7.103196,-9.1e-05,32.51888,-8e-06
0.00372,-28.733971,-1.4e-05,-28.494907,-4.2e-05,7.050658,-0.000243,32.513979,-2.2e-05
0.004464,-28.784461,-3.2e-05,-28.507211,-9.6e-05,6.995897,-0.00055,32.50883,-5e-05
0.005208,-28.837146,-6.6e-05,-28.52072,-0.000194,6.939255,-0.001102,32.503461,-0.0001
0.005952,-28.891761,-0.000124,-28.535453,-0.000359,6.881083,-0.002009,32.497903,-0.000183
0.006696,-28.948038,-0.000218,-28.55142,-0.000616,6.821734,-0.003402,32.492189,-0.000311
0.00744,-29.00571,-0.000359,-28.568629,-0.000997,6.761556,-0.005431,32.486352,-0.000498
0.008184,-29.064515,-0.000564,-28.587085,-0.001537,6.700886,-0.008255,32.480428,-0.000758
0.008928,-29.124202,-0.000851,-28.606787,-0.002276,6.640044,-0.012044,32.474453,-0.001107
0.009672,-29.184532,-0.001241,-28.627734,-0.003257,6.579335,-0.016972,32.468465,-0.001563
0.010417,-29.24528,-0.001758,-28.649923,-0.004527,6.51904,-0.023211,32.462503,-0.002142
0.011161,-29.306237,-0.002427,-28.673345,-0.006132,6.459421,-0.030924,32.456608,-0.002859
0.011905,-29.367209,-0.003277,-28.69799,-0.008121,6.400717,-0.040265,32.450821,-0.00373
0.012649,-29.42802,-0.004337,-28.723844,-0.010545,6.343147,-0.051368,32.445184,-0.004767
0.013393,-29.488509,-0.005641,-28.750887,-0.013451,6.286906,-0.064349,32.439743,-0.005984
0.014137,-29.548531,-0.007222,-28.779096,-0.016888,6.232171,-0.079295,32.434541,-0.007389
0.014881,-29.607956,-0.009113,-28.808442,-0.020901,6.179095,-0.096267,32.429624,-0.008988
0.015625,-29.666667,-0.011352,-28.838894,-0.025533,6.127811,-0.115292,32.425036,-0.010785
0.016369,-29.724564,-0.013975,-28.870416,-0.030824,6.078431,-0.136365,32.420821,-0.012782
0.017113,-29.781556,-0.017018,-28.902969,-0.036807,6.031044,-0.159448,32.417021,-0.014973
0.017857,-29.837566,-0.020516,-28.936513,-0.043515,5.985723,-0.184465,32.413678,-0.017353
0.018601,-29.892528,-0.024507,-28.971003,-0.05097,5.942517,-0.211308,32.410829,-0.019911
0.019345,-29.946384,-0.029024,-29.006392,-0.059194,5.901458,-0.239834,32.408511,-0.022633
0.020089,-29.999085,-0.0341,-29.042633,-0.068198,5.862561,-0.269868,32.406758,-0.025501
0.020833,-30.05059,-0.039767,-29.079674,-0.077991,5.825826,-0.301206,32.405602,-0.028494
0.021577,-30.100861,-0.046054,-29.117459,-0.088572,5.791239,-0.33362,32.405074,-0.031586
0.022321,-30.149867,-0.052987,-29.155931,-0.099934,5.758775,-0.366854,32.405203,-0.034751
0.023065,-30.197579,-0.06059,-29.195026,-0.112067,5.728401,-0.400636,32.406017,-0.037956
0.023809,-30.243971,-0.068883,-29.23468,-0.124949,5.700077,-0.434679,32.407545,-0.041168
0.024553,-30.289017,-0.077883,-29.274823,-0.138556,5.673755,-0.468683,32.409815,-0.044353
0.025297,-30.332697,-0.087602,-29.315383,-0.152856,5.649382,-0.502344,32.412858,-0.047471
0.026041,-30.37499,-0.09805,-29.356287,-0.167811,5.626899,-0.535354,32.416704,-0.050484
0.026785,-30.415878,-0.109231,-29.397461,-0.183377,5.606241,-0.567408,32.421383,-0.053351
0.027529,-30.455344,-0.121144,-29.43883,-0.199508,5.587338,-0.598207,32.426927,-0.056033
0.028273,-30.493375,-0.133784,-29.480321,-0.216149,5.570116,-0.627465,32.433369,-0.058487
0.029017,-30.529956,-0.147143,-29.52186,-0.233243,5.554495,-0.654906,32.440741,-0.060673
0.029761,-30.565077,-0.161205,-29.563377,-0.250728,5.540391,-0.680277,32.449073,-0.06255
0.030506,-30.598726,-0.175951,-29.604802,-0.268539,5.527718,-0.703342,32.458395,-0.06408
0.03125,-30.630892,-0.191356,-29.646067,-0.28661,5.516388,-0.72389,32.468732,-0.065224
0.031994,-30.661565,-0.207391,-29.687105,-0.304868,5.506312,-0.741738,32.480106,-0.065946
0.032738,-30.69073,-0.224022,-29.727852,-0.323242,5.497402,-0.756726,32.492533,-0.06621
0.033482,-30.718376,-0.241209,-29.768242,-0.341657,5.489572,-0.768728,32.506023,-0.065986
0.034226,-30.744488,-0.258909,-29.808213,-0.36004,5.482739,-0.777645,32.520582,-0.065241
0.03497,-30.769054,-0.277074,-29.847704,-0.378313,5.476822,-0.783408,32.53621,-0.06395
0.035714,-30.792064,-0.29565,-29.886657,-0.396401,5.471746,-0.78598,32.552904,-0.062086
0.036458,-30.813512,-0.31458,-29.925015,-0.414229,5.467436,-0.785353,32.570655,-0.059628
0.037202,-30.833395,-0.333805,-29.962727,-0.431722,5.463823,-0.781546,32.589455,-0.056556
0.037946,-30.851719,-0.35326,-29.999746,-0.448805,5.46084,-0.774609,32.609291,-0.052854
0.03869,-30.868494,-0.372877,-30.036026,-0.465408,5.458423,-0.764615,32.630152,-0.048508
0.039434,-30.883736,-0.392585,-30.07153,-0.481459,5.456513,-0.751663,32.652025,-0.043509
0.040178,-30.897468,-0.412311,-30.106223,-0.496889,5.455052,-0.735875,32.674897,-0.037849
0.040922,-30.909717,-0.431979,-30.140074,-0.511634,5.453988,-0.717391,32.698756,-0.031524
0.041666,-30.920513,-0.451511,-30.173057,-0.52563,5.453273,-0.696369,32.723589,-0.024533
0.04241,-30.929885,-0.470828,-30.205149,-0.538816,5.452861,-0.672983,32.749381,-0.016877
0.043154,-30.937861,-0.489848,-30.236329,-0.551136,5.452713,-0.647418,32.776118,-0.008562
0.043898,-30.944467,-0.50849,-30.266578,-0.562536,5.452796,-0.619869,32.803783,0.000405
0.044642,-30.949724,-0.526672,-30.295881,-0.572966,5.453078,-0.59054,32.832359,0.010013
0.045386,-30.953649,-0.544311,-30.324224,-0.582379,5.453536,-0.559637,32.861825,0.020249
0.04613,-30.956255,-0.561326,-30.351596,-0.590734,5.454152,-0.52737,32.892162,0.031096
0.046874,-30.957547,-0.577633,-30.377988,-0.597993,5.45491,-0.493947,32.923349,0.042537
0.047618,-30.957529,-0.593154,-30.403393,-0.60412,5.455803,-0.459576,32.955364,0.05455
0.048362,-30.956199,-0.607809,-30.427806,-0.609086,5.456825,-0.424457,32.988185,0.067112
0.049106,-30.953553,-0.62152,-30.451226,-0.612866,5.457978,-0.388786,33.021788,0.080198
0.04985,-30.949584,-0.634213,-30.473652,-0.615438,5.459265,-0.352752,33.05615,0.09378
0.050595,-30.944287,-0.645815,-30.495085,-0.616785,5.460697,-0.316533,33.091246,0.10783
0.051339,-30.937657,-0.656256,-30.515527,-0.616894,5.462284,-0.280294,33.127051,0.122318
0.052083,-30.92969,-0.665469,-30.534981,-0.615758,5.464044,-0.244193,33.163537,0.13721
0.052827,-30.92039,-0.673392,-30.553451,-0.613371,5.465996,-0.208371,33.200674,0.152474
0.053571,-30.909761,-0.679964,-30.570938,-0.609734,5.468162,-0.172959,33.238432,0.168075
0.054315,-30.897812,-0.68513,-30.587448,-0.604851,5.470567,-0.138071,33.276778,0.183978
0.055059,-30.884559,-0.688839,-30.602985,-0.59873,5.473239,-0.103811,33.315676,0.200147
0.055803,-30.870016,-0.691044,-30.617555,-0.591382,5.476209,-0.070266,33.35509,0.216544
0.056547,-30.854204,-0.691703,-30.631165,-0.582823,5.47951,-0.03751,33.394985,0.233133
0.057291,-30.837143,-0.690778,-30.643827,-0.573071,5.483177,-0.005604,33.435323,0.249876
0.058035,-30.818853,-0.688236,-30.655555,-0.56215,5.487248,0.025404,33.476067,0.266734
0.058779,-30.799357,-0.684049,-30.666364,-0.550084,5.491764,0.055479,33.517178,0.283671
0.059523,-30.778677,-0.678197,-30.676274,-0.5369,5.496766,0.084599,33.558621,0.300647
0.060267,-30.756833,-0.67066,-30.685309,-0.522631,5.502297,0.112751,33.60036,0.317626
0.061011,-30.733848,-0.661427,-30.693494,-0.507309,5.508403,0.139933,33.642357,0.334569
0.061755,-30.709746,-0.650491,-30.700854,-0.49097,5.515127,0.166154,33.684578,0.35144
0.062499,-30.684553,-0.637851,-30.707418,-0.473651,5.522515,0.19143,33.726985,0.3682
0.063243,-30.658298,-0.623511,-30.713213,-0.455392,5.530613,0.215784,33.769544,0.384814
0.063987,-30.631012,-0.607478,-30.718266,-0.436233,5.539463,0.239249,33.812218,0.401245
0.064731,-30.602729,-0.589768,-30.722603,-0.416217,5.549111,0.26186,33.854971,0.417458
0.065475,-30.573486,-0.570398,-30.726251,-0.395387,5.559601,0.283658,33.897766,0.433418
0.066219,-30.543319,-0.549394,-30.729233,-0.373789,5.570976,0.304691,33.940569,0.449089
0.066963,-30.512269,-0.526784,-30.731576,-0.351467,5.583279,0.325005,33.983345,0.464439
0.067707,-30.480375,-0.5026,-30.733301,-0.328469,5.596553,0.344653,34.02606,0.479434
0.068451,-30.447675,-0.476882,-30.734435,-0.304841,5.610843,0.363688,34.068681,0.494042
0.069195,-30.414208,-0.44967,-30.735001,-0.28063,5.62619,0.382162,34.111176,0.50823
0.069939,-30.380013,-0.421012,-30.735024,-0.255884,5.642637,0.400131,34.153517,0.521969
0.070684,-30.345127,-0.390957,-30.734529,-0.230651,5.660223,0.417647,34.195675,0.535228
0.071428,-30.309585,-0.35956,-30.733542,-0.20498,5.678988,0.434764,34.237621,0.547978
0.072172,-30.273424,-0.326877,-30.732091,-0.178917,5.698966,0.451533,34.279329,0.56019
0.072916,-30.23668,-0.29297,-30.730203,-0.152512,5.720192,0.468006,34.320774,0.571837
0.07366,-30.199389,-0.257903,-30.727907,-0.125811,5.742694,0.484229,34.361931,0.582894
0.074404,-30.161587,-0.221741,-30.725231,-0.098862,5.766499,0.50025,34.402775,0.593333
0.075148,-30.12331,-0.184554,-30.722203,-0.071711,5.791633,0.516111,34.443284,0.603132
0.075892,-30.084592,-0.146414,-30.71885,-0.044405,5.818119,0.531854,34.483435,0.612267
0.076636,-30.045466,-0.107393,-30.7152,-0.01699,5.845978,0.547517,34.523209,0.620716
0.07738,-30.005965,-0.067568,-30.711276,0.010491,5.875232,0.563136,34.562587,0.628458
0.078124,-29.966119,-0.027014,-30.707102,0.037991,5.905904,0.578744,34.60155,0.635474
0.078868,-29.925955,0.01419,-30.702697,0.06547,5.938016,0.59437,34.640085,0.641746
0.079612,-29.885499,0.055966,-30.69808,0.092883,5.971592,0.610043,34.678178,0.647256
0.080356,-29.844772,0.098232,-30.693266,0.120189,6.006657,0.625785,34.715816,0.65199
0.0811,-29.803794,0.140909,-30.688268,0.147348,6.043236,0.64162,34.75299,0.655933
0.081844,-29.762582,0.183917,-30.683097,0.174321,6.081357,0.657566,34.78969,0.659073
0.082588,-29.72115,0.227174,-30.67776,0.201069,6.121045,0.67364,34.825908,0.661399
0.083332,-29.67951,0.270599,-30.672266,0.227555,6.162328,0.689855,34.861636,0.662903
0.084076,-29.637669,0.314114,-30.666621,0.253743,6.205232,0.706224,34.896867,0.663575
0.08482,-29.595634,0.357638,-30.660831,0.279598,6.249785,0.722757,34.931593,0.663411
0.085564,-29.55341,0.401092,-30.6549,0.305088,6.296012,0.739461,34.965808,0.662405
0.086308,-29.510996,0.444399,-30.648836,0.330179,6.343942,0.756342,34.999502,0.660556
0.087052,-29.468392,0.487484,-30.642645,0.354843,6.393605,0.773404,35.032668,0.657862
0.087796,-29.425591,0.530269,-30.636338,0.379051,6.445031,0.79065,35.065297,0.654324
0.08854,-29.382588,0.572684,-30.629923,0.402774,6.498251,0.808081,35.097377,0.649945
0.089284,-29.339372,0.614655,-30.623416,0.425987,6.553298,0.825697,35.128896,0.644729
0.090029,-29.295928,0.656113,-30.616832,0.448667,6.610207,0.843497,35.159843,0.638681
0.090773,-29.25224,0.696992,-30.610192,0.470792,6.669013,0.86148,35.1902,0.63181
0.091517,-29.208288,0.737225,-30.60352,0.492341,6.729751,0.879641,35.21995,0.624123
0.092261,-29.164051,0.77675,-30.596842,0.513295,6.792456,0.897979,35.249074,0.615633
0.093005,-29.119502,0.815507,-30.590191,0.533639,6.85716,0.916488,35.277548,0.60635
0.093749,-29.074615,0.853437,-30.583599,0.553357,6.923897,0.935166,35.305347,0.596288
0.094493,-29.02936,0.890487,-30.577103,0.572436,6.992696,0.954007,35.332444,0.585462
0.095237,-28.983708,0.926603,-30.570738,0.590864,7.063586,0.973007,35.358812,0.573888
0.095981,-28.937627,0.961738,-30.564542,0.608632,7.136593,0.992162,35.384421,0.561582
0.096725,-28.891087,0.995843,-30.558549,0.62573,7.211741,1.011467,35.409242,0.548562
0.097469,-28.844059,1.028877,-30.552791,0.642152,7.289052,1.030917,35.433245,0.534847
0.098213,-28.796513,1.060799,-30.547298,0.657892,7.368544,1.05051,35.456402,0.520454
0.098957,-28.748424,1.091572,-30.542094,0.672944,7.450232,1.07024,35.478685,0.505403
0.099701,-28.699768,1.121162,-30.537199,0.687304,7.534127,1.090104,35.500067,0.489714
0.100445,-28.650522,1.14954,-30.532628,0.700968,7.620235,1.110099,35.520523,0.473406
0.101189,-28.600671,1.176677,-30.528391,0.713935,7.708558,1.130222,35.540026,0.456498
0.101933,-28.5502,1.202549,-30.524496,0.726201,7.799088,1.150471,35.558551,0.43901
0.102677,-28.499098,1.227137,-30.520946,0.737763,7.89181,1.170842,35.576072,0.42096
0.103421,-28.44736,1.250421,-30.517741,0.74862,7.986701,1.191333,35.592564,0.402365
0.104165,-28.394983,1.272389,-30.514879,0.75877,8.083731,1.211942,35.608004,0.383244
0.104909,-28.341968,1.293028,-30.512357,0.768209,8.182859,1.232665,35.622369,0.363613
0.105653,-28.28832,1.31233,-30.51017,0.776937,8.284037,1.253501,35.63564,0.343488
0.106397,-28.234048,1.330292,-30.508312,0.784951,8.38721,1.274445,35.647803,0.322883
0.107141,-28.179166,1.34691,-30.506776,0.792248,8.492315,1.295493,35.65885,0.301812
0.107885,-28.123689,1.362186,-30.505553,0.798827,8.599282,1.316641,35.668778,0.280289
0.108629,-28.067638,1.376125,-30.504636,0.804684,8.708032,1.337882,35.677593,0.258325
0.109373,-28.011038,1.388732,-30.504015,0.80982,8.81848,1.35921,35.685306,0.235932
0.110118,-27.953918,1.400018,-30.503681,0.81423,8.930534,1.380614,35.691936,0.213118
0.110862,-27.89631,1.409995,-30.503625,0.817916,9.044093,1.402084,35.697506,0.189895
0.111606,-27.838254,1.418677,-30.503837,0.820875,9.159044,1.423607,35.702043,0.16627
0.11235,-27.779792,1.426082,-30.504306,0.823109,9.275267,1.445167,35.705576,0.142251
0.113094,-27.720972,1.432229,-30.505024,0.824618,9.39263,1.466746,35.708132,0.117848
0.113838,-27.661846,1.437139,-30.505979,0.825404,9.510993,1.488322,35.709739,0.093066
0.114582,-27.602472,1.440837,-30.507162,0.825471,9.630205,1.509871,35.710419,0.067915
0.115326,-27.542908,1.443348,-30.508561,0.824823,9.750111,1.531363,35.710192,0.042402
0.11607,-27.483218,1.444699,-30.510168,0.823467,9.870548,1.552767,35.709073,0.016535
0.116814,-27.423466,1.444919,-30.511969,0.821408,9.991351,1.574046,35.707072,-0.009675
0.117558,-27.363719,1.444039,-30.513955,0.818658,10.112352,1.59516,35.704195,-0.036218
0.118302,-27.304045,1.442088,-30.516112,0.815225,10.233383,1.616063,35.700445,-0.063082
0.119046,-27.244511,1.439101,-30.518427,0.811122,10.354277,1.636705,35.695821,-0.090255
0.11979,-27.185186,1.435111,-30.520885,0.806362,10.474866,1.657032,35.690317,-0.117721
0.120534,-27.126139,1.430151,-30.52347,0.800962,10.594985,1.676984,35.683932,-0.145464
0.121278,-27.06744,1.424257,-30.526163,0.794938,10.714468,1.696497,35.67666,-0.173466
0.122022,-27.00916,1.417464,-30.528944,0.788309,10.833151,1.715501,35.668499,-0.201707
0.122766,-26.951372,1.409806,-30.53179,0.781095,10.950868,1.733921,35.659452,-0.230164
0.12351,-26.894148,1.40132,-30.534676,0.773316,11.067451,1.751679,35.649523,-0.258814
0.124254,-26.837562,1.39204,-30.537575,0.764996,11.182735,1.768691,35.638721,-0.287633
0.124998,-26.781689,1.382002,-30.540461,0.756159,11.296556,1.784869,35.627059,-0.316592
0.125742,-26.726601,1.37124,-30.543305,0.74683,11.408752,1.800121,35.614551,-0.345664
0.126486,-26.672372,1.359787,-30.54608,0.737034,11.519165,1.814351,35.601216,-0.374819
0.12723,-26.619071,1.347677,-30.548759,0.726799,11.627642,1.827461,35.587074,-0.404026
0.127974,-26.566766,1.334942,-30.551319,0.716152,11.73404,1.839347,35.572145,-0.433254
0.128718,-26.515522,1.321612,-30.553734,0.705122,11.83822,1.849906,35.556449,-0.462472
0.129462,-26.465402,1.307717,-30.555987,0.693737,11.940053,1.859032,35.540007,-0.491646
0.130207,-26.416463,1.293286,-30.558058,0.682027,12.039416,1.866616,35.52284,-0.520743
0.130951,-26.368764,1.278345,-30.559931,0.670022,12.136193,1.872551,35.504966,-0.549731
0.131695,-26.322358,1.262919,-30.561593,0.657751,12.230275,1.876728,35.486404,-0.578578
0.132439,-26.277299,1.247033,-30.563029,0.645245,12.321555,1.879039,35.467176,-0.60725
0.133183,-26.233639,1.230706,-30.564227,0.632533,12.40993,1.879378,35.447301,-0.635716
0.133927,-26.191428,1.213961,-30.565173,0.619646,12.495301,1.877639,35.426799,-0.663944
0.134671,-26.150715,1.196813,-30.565854,0.606614,12.577575,1.873721,35.405693,-0.691904
0.135415,-26.111545,1.17928,-30.566255,0.593465,12.656665,1.867524,35.384003,-0.719564
0.136159,-26.07396,1.161374,-30.56636,0.58023,12.73249,1.858952,35.361751,-0.746897
0.136903,-26.037996,1.143107,-30.566152,0.566936,12.804983,1.847916,35.338957,-0.773873
0.137647,-26.003686,1.124489,-30.565613,0.553613,12.874083,1.83433,35.315641,-0.800466
0.138391,-25.971055,1.105527,-30.564724,0.540286,12.939744,1.818113,35.291822,-0.826648
0.139135,-25.940121,1.086227,-30.563464,0.526982,13.001932,1.799192,35.267517,-0.852394
0.139879,-25.9109,1.066591,-30.561811,0.513728,13.060623,1.7775,35.242741,-0.87768
0.140623,-25.883398,1.04662,-30.559747,0.500547,13.115805,1.752976,35.217508,-0.902482
0.141367,-25.857619,1.026314,-30.557248,0.487464,13.167473,1.725569,35.191832,-0.926777
0.142111,-25.833566,1.005669,-30.554297,0.4745,13.215627,1.695234,35.165722,-0.950543
0.142855,-25.811236,0.984681,-30.550876,0.461678,13.260272,1.661935,35.139189,-0.973761
0.143599,-25.790627,0.963343,-30.546967,0.449016,13.301412,1.625644,35.112244,-0.996409
0.144343,-25.771735,0.941645,-30.542556,0.436536,13.339059,1.586344,35.084894,-1.01847
0.145087,-25.754552,0.919578,-30.537629,0.424253,13.373226,1.544024,35.057149,-1.039925
0.145831,-25.739068,0.897131,-30.532174,0.412187,13.403932,1.498684,35.029016,-1.060757
0.146575,-25.725268,0.874289,-30.526179,0.400351,13.431205,1.450333,35.000505,-1.08095
0.147319,-25.713131,0.851038,-30.519633,0.388761,13.455081,1.398989,34.971623,-1.100488
0.148063,-25.702634,0.827363,-30.512525,0.377431,13.475606,1.34468,34.942379,-1.119358
0.148807,-25.693743,0.803246,-30.504843,0.366373,13.492839,1.287443,34.912781,-1.137544
0.149551,-25.686421,0.778671,-30.496577,0.355598,13.506851,1.227323,34.88284,-1.155035
0.150296,-25.680626,0.753619,-30.487714,0.345118,13.517723,1.164375,34.852565,-1.171819
0.15104,-25.676308,0.728071,-30.478244,0.334941,13.525542,1.098663,34.821967,-1.187885
0.151784,-25.673418,0.702008,-30.468157,0.325077,13.530404,1.030258,34.791058,-1.203222
0.152528,-25.671906,0.675411,-30.457441,0.315533,13.532405,0.959241,34.759853,-1.217822
0.153272,-25.67172,0.64826,-30.446089,0.306317,13.53164,0.8857,34.728367,-1.231678
0.154016,-25.672814,0.620536,-30.434093,0.297435,13.528199,0.80973,34.696617,-1.24478
0.15476,-25.675143,0.59222,-30.421445,0.288892,13.522168,0.731435,34.664621,-1.257124
0.155504,-25.678668,0.563295,-30.40814,0.280693,13.513621,0.650924,34.6324,-1.268705
0.156248,-25.683355,0.533741,-30.394173,0.272842,13.502628,0.568313,34.599974,-1.279516
0.156992,-25.689175,0.503543,-30.379538,0.265342,13.489246,0.483724,34.567368,-1.289557
0.157736,-25.696105,0.472685,-30.364232,0.258196,13.473523,0.397286,34.534605,-1.298823
0.15848,-25.704128,0.441153,-30.348249,0.251406,13.455498,0.309132,34.50171,-1.307313
0.159224,-25.713232,0.408933,-30.331585,0.244972,13.435202,0.219398,34.46871,-1.315026
0.159968,-25.723409,0.376015,-30.314236,0.238896,13.41266,0.128227,34.435633,-1.321961
0.160712,-25.734655,0.342388,-30.296198,0.233178,13.387892,0.035764,34.402506,-1.328119
0.161456,-25.746968,0.308045,-30.277467,0.227817,13.360919,-0.057843,34.369361,-1.333501
0.1622,-25.760346,0.272981,-30.25804,0.222812,13.331762,-0.152443,34.336229,-1.338109
0.162944,-25.77479,0.237191,-30.237916,0.218161,13.300445,-0.247887,34.303143,-1.341943
0.163688,-25.790296,0.200674,-30.217094,0.213862,13.266998,-0.34402,34.270138,-1.345006
0.164432,-25.806864,0.163431,-30.195575,0.209912,13.231454,-0.44069,34.237248,-1.3473
0.165176,-25.824491,0.125466,-30.173358,0.206308,13.193851,-0.537747,34.204511,-1.348828
0.16592,-25.843173,0.086784,-30.150448,0.203045,13.15423,-0.635039,34.171962,-1.349592
0.166664,-25.862908,0.047394,-30.126846,0.200118,13.112635,-0.732419,34.139637,-1.349593
0.167408,-25.883694,0.007307,-30.102556,0.197524,13.069109,-0.829742,34.107573,-1.348836
0.168152,-25.905528,-0.033463,-30.077582,0.195255,13.023696,-0.926866,34.075803,-1.34732
0.168896,-25.928412,-0.0749,-30.051928,0.193307,12.97644,-1.023653,34.044361,-1.345048
0.16964,-25.952345,-0.116986,-30.025597,0.191672,12.92738,-1.119972,34.013277,-1.342021
